# OpenSignals Text File Format. Version 1
# {"20:19:07:00:80:4C": {"position": 0, "device": "bitalino_rev", "device name": "20:19:07:00:80:4C", "device connection": "BTH20:19:07:00:80:4C", "sampling rate": 1000, "resolution": [4, 1, 1, 1, 1, 10, 10, 10, 10, 6, 6], "firmware version": 1282, "comments": "", "keywords": "", "mode": 0, "sync interval": 2, "date": "2022-4-01", "time": "15:54:50.255", "channels": [1, 2, 3, 4, 5, 6], "sensor": ["RAW", "RAW", "RAW", "RAW", "RAW", "RAW"], "label": ["A1", "A2", "A3", "A4", "A5", "A6"], "column": ["nSeq", "I1", "I2", "O1", "O2", "A1", "A2", "A3", "A4", "A5", "A6"], "special": [{}, {}, {}, {}, {}, {}], "digital IO": [0, 0, 1, 1]}}
# EndOfHeader
0	0	0	0	0	511	512	511	505	31	31	
1	0	0	0	0	511	512	512	507	31	31	
2	0	0	0	0	505	515	512	510	31	31	
3	0	0	0	0	503	514	513	511	31	31	
4	0	0	0	0	503	512	511	510	31	31	
5	0	0	0	0	502	507	511	509	31	31	
6	0	0	0	0	505	509	512	508	31	31	
7	0	0	0	0	502	507	511	508	31	31	
8	0	0	0	0	502	505	511	511	31	32	
9	0	0	0	0	503	505	511	512	31	32	
10	0	0	0	0	501	510	512	510	31	32	
11	0	0	0	0	500	509	507	512	31	32	
12	0	0	0	0	505	505	507	511	31	32	
13	0	0	0	0	502	509	508	513	31	32	
14	0	0	0	0	500	514	510	512	31	31	
15	0	0	0	0	499	515	511	509	31	31	
0	0	0	0	0	500	515	514	506	31	31	
1	0	0	0	0	503	513	516	505	31	31	
2	0	0	0	0	502	514	513	508	31	32	
3	0	0	0	0	504	515	513	510	31	32	
4	0	0	0	0	504	515	513	511	31	32	
5	0	0	0	0	505	517	509	511	31	31	
6	0	0	0	0	505	515	509	512	31	31	
7	0	0	0	0	505	514	512	511	31	31	
8	0	0	0	0	505	511	511	510	31	31	
9	0	0	0	0	506	509	512	511	31	31	
10	0	0	0	0	504	506	512	511	31	31	
11	0	0	0	0	508	509	513	507	31	31	
12	0	0	0	0	505	510	513	508	31	31	
13	0	0	0	0	504	515	511	511	31	31	
14	0	0	0	0	502	515	511	511	31	32	
15	0	0	0	0	500	515	512	508	31	31	
0	0	0	0	0	499	519	511	511	31	32	
1	0	0	0	0	502	517	510	510	31	31	
2	0	0	0	0	500	512	510	511	31	31	
3	0	0	0	0	502	509	512	509	31	31	
4	0	0	0	0	503	511	511	510	31	31	
5	0	0	0	0	504	511	511	508	31	31	
6	0	0	0	0	504	510	513	510	31	31	
7	0	0	0	0	503	513	512	508	31	31	
8	0	0	0	0	505	512	511	511	31	32	
9	0	0	0	0	502	512	511	510	31	32	
10	0	0	0	0	502	511	514	511	31	31	
11	0	0	0	0	502	513	513	512	31	31	
12	0	0	0	0	502	513	510	511	31	31	
13	0	0	0	0	503	518	513	510	31	31	
14	0	0	0	0	503	521	512	511	31	31	
15	0	0	0	0	506	523	511	511	31	31	
0	0	0	0	0	501	519	511	511	31	32	
1	0	0	0	0	504	511	512	508	31	32	
2	0	0	0	0	501	499	511	508	31	32	
3	0	0	0	0	499	499	511	507	31	32	
4	0	0	0	0	501	500	514	508	31	32	
5	0	0	0	0	502	508	510	513	31	31	
6	0	0	0	0	502	509	510	513	31	31	
7	0	0	0	0	505	515	510	510	31	31	
8	0	0	0	0	505	516	510	512	31	31	
9	0	0	0	0	505	516	509	508	31	31	
10	0	0	0	0	506	512	513	511	31	31	
11	0	0	0	0	506	508	510	511	31	32	
12	0	0	0	0	504	512	510	510	31	31	
13	0	0	0	0	507	510	511	510	31	31	
14	0	0	0	0	507	511	512	511	31	31	
15	0	0	0	0	507	512	511	510	31	31	
0	0	0	0	0	509	511	515	509	31	31	
1	0	0	0	0	502	515	514	510	31	31	
2	0	0	0	0	498	516	511	510	31	31	
3	0	0	0	0	496	514	513	509	31	32	
4	0	0	0	0	497	515	512	507	31	32	
5	0	0	0	0	499	510	511	509	31	31	
6	0	0	0	0	504	510	511	512	31	31	
7	0	0	0	0	504	515	509	510	31	31	
8	0	0	0	0	505	520	510	508	31	31	
9	0	0	0	0	508	515	511	512	31	31	
10	0	0	0	0	513	512	512	508	31	31	
11	0	0	0	0	512	507	512	508	31	31	
12	0	0	0	0	505	507	513	509	31	31	
13	0	0	0	0	507	507	511	511	31	31	
14	0	0	0	0	504	510	511	510	31	31	
15	0	0	0	0	502	514	510	510	31	32	
0	0	0	0	0	499	516	512	507	31	31	
1	0	0	0	0	503	516	513	510	31	32	
2	0	0	0	0	502	516	510	512	31	31	
3	0	0	0	0	503	515	511	510	31	32	
4	0	0	0	0	500	508	513	509	31	31	
5	0	0	0	0	501	509	512	508	31	31	
6	0	0	0	0	502	505	513	511	31	31	
7	0	0	0	0	504	509	511	510	31	31	
8	0	0	0	0	502	510	513	510	31	31	
9	0	0	0	0	504	510	514	511	31	31	
10	0	0	0	0	504	512	514	511	31	31	
11	0	0	0	0	501	511	512	510	31	31	
12	0	0	0	0	500	512	512	511	31	32	
13	0	0	0	0	499	514	509	512	31	32	
14	0	0	0	0	499	513	510	511	31	31	
15	0	0	0	0	500	513	512	508	31	31	
0	0	0	0	0	500	513	511	511	31	32	
1	0	0	0	0	501	518	511	514	31	31	
2	0	0	0	0	504	513	511	512	31	31	
3	0	0	0	0	505	515	510	508	31	31	
4	0	0	0	0	503	513	512	507	31	31	
5	0	0	0	0	504	512	512	508	31	32	
6	0	0	0	0	503	512	512	507	31	31	
7	0	0	0	0	507	518	511	508	31	31	
8	0	0	0	0	506	527	514	510	31	31	
9	0	0	0	0	506	519	512	510	31	31	
10	0	0	0	0	510	509	512	513	31	31	
11	0	0	0	0	508	500	512	510	31	31	
12	0	0	0	0	508	498	512	510	31	31	
13	0	0	0	0	505	504	514	511	31	32	
14	0	0	0	0	503	511	513	511	31	32	
15	0	0	0	0	502	515	511	512	31	32	
0	0	0	0	0	501	514	510	510	31	31	
1	0	0	0	0	498	513	513	510	31	31	
2	0	0	0	0	499	512	512	509	31	31	
3	0	0	0	0	498	510	514	507	31	31	
4	0	0	0	0	504	512	512	510	31	31	
5	0	0	0	0	505	515	513	509	31	31	
6	0	0	0	0	504	516	512	510	31	31	
7	0	0	0	0	505	512	512	511	31	31	
8	0	0	0	0	502	519	513	509	31	31	
9	0	0	0	0	504	523	513	511	31	32	
10	0	0	0	0	502	523	513	510	31	32	
11	0	0	0	0	506	519	512	509	31	31	
12	0	0	0	0	504	510	511	510	31	31	
13	0	0	0	0	503	500	513	509	31	31	
14	0	0	0	0	505	498	512	512	31	31	
15	0	0	0	0	509	500	513	510	31	31	
0	0	0	0	0	508	503	512	510	31	31	
1	0	0	0	0	506	508	512	509	31	31	
2	0	0	0	0	503	508	512	509	31	31	
3	0	0	0	0	505	513	510	511	31	32	
4	0	0	0	0	502	515	514	511	31	31	
5	0	0	0	0	501	515	512	511	31	31	
6	0	0	0	0	502	515	513	510	31	31	
7	0	0	0	0	503	517	511	508	31	31	
8	0	0	0	0	503	516	511	508	31	31	
9	0	0	0	0	501	513	510	510	31	31	
10	0	0	0	0	495	516	511	508	31	31	
11	0	0	0	0	497	513	510	510	31	31	
12	0	0	0	0	498	515	510	512	31	31	
13	0	0	0	0	502	513	511	512	31	32	
14	0	0	0	0	500	520	510	512	31	32	
15	0	0	0	0	504	518	510	510	31	32	
0	0	0	0	0	507	515	511	509	31	32	
1	0	0	0	0	511	513	512	510	31	31	
2	0	0	0	0	508	508	510	510	31	31	
3	0	0	0	0	504	505	510	511	31	31	
4	0	0	0	0	502	506	512	511	31	31	
5	0	0	0	0	503	507	512	510	31	31	
6	0	0	0	0	506	515	510	511	31	31	
7	0	0	0	0	508	515	508	505	31	32	
8	0	0	0	0	506	512	510	512	31	32	
9	0	0	0	0	507	514	510	511	31	32	
10	0	0	0	0	504	523	509	512	31	31	
11	0	0	0	0	504	517	510	511	31	31	
12	0	0	0	0	507	509	512	511	31	31	
13	0	0	0	0	504	503	513	513	31	31	
14	0	0	0	0	500	499	511	511	31	31	
15	0	0	0	0	502	496	510	512	31	31	
0	0	0	0	0	504	500	513	509	31	31	
1	0	0	0	0	504	508	512	508	31	32	
2	0	0	0	0	504	515	511	509	31	31	
3	0	0	0	0	505	519	511	511	31	32	
4	0	0	0	0	503	518	510	509	31	31	
5	0	0	0	0	497	516	513	511	31	31	
6	0	0	0	0	499	513	510	508	31	31	
7	0	0	0	0	502	516	514	510	31	31	
8	0	0	0	0	507	517	511	508	31	31	
9	0	0	0	0	506	518	511	509	31	31	
10	0	0	0	0	503	516	510	510	31	32	
11	0	0	0	0	502	512	512	510	31	31	
12	0	0	0	0	503	516	512	510	31	31	
13	0	0	0	0	503	516	511	510	31	31	
14	0	0	0	0	499	518	511	512	31	31	
15	0	0	0	0	500	514	511	510	31	32	
0	0	0	0	0	503	510	513	512	31	31	
1	0	0	0	0	507	508	512	513	31	32	
2	0	0	0	0	510	507	511	510	31	31	
3	0	0	0	0	509	509	513	511	31	31	
4	0	0	0	0	505	510	513	508	31	31	
5	0	0	0	0	498	509	512	512	31	31	
6	0	0	0	0	505	512	511	509	31	31	
7	0	0	0	0	506	517	511	511	31	31	
8	0	0	0	0	507	515	510	512	31	31	
9	0	0	0	0	504	513	512	511	31	31	
10	0	0	0	0	502	513	514	510	31	31	
11	0	0	0	0	500	511	509	507	31	31	
12	0	0	0	0	493	503	510	510	31	32	
13	0	0	0	0	498	508	508	511	31	32	
14	0	0	0	0	500	513	510	508	31	32	
15	0	0	0	0	503	517	511	508	31	32	
0	0	0	0	0	506	519	512	511	31	32	
1	0	0	0	0	510	518	511	511	31	31	
2	0	0	0	0	511	519	510	512	31	31	
3	0	0	0	0	507	518	511	511	31	31	
4	0	0	0	0	504	516	511	508	31	31	
5	0	0	0	0	501	516	511	508	31	31	
6	0	0	0	0	502	510	512	510	31	31	
7	0	0	0	0	502	504	512	512	31	31	
8	0	0	0	0	499	504	513	510	31	31	
9	0	0	0	0	500	502	510	510	31	31	
10	0	0	0	0	503	501	512	512	31	31	
11	0	0	0	0	509	501	512	509	31	31	
12	0	0	0	0	513	508	512	508	31	32	
13	0	0	0	0	509	515	514	508	31	31	
14	0	0	0	0	505	516	512	509	31	31	
15	0	0	0	0	503	514	510	510	31	32	
0	0	0	0	0	499	515	511	511	31	31	
1	0	0	0	0	499	514	510	510	31	31	
2	0	0	0	0	500	512	510	509	31	31	
3	0	0	0	0	504	514	511	510	31	31	
4	0	0	0	0	504	510	511	510	31	32	
5	0	0	0	0	504	514	513	510	31	32	
6	0	0	0	0	497	521	511	510	31	32	
7	0	0	0	0	499	522	508	506	31	32	
8	0	0	0	0	502	519	509	508	31	31	
9	0	0	0	0	505	514	510	511	31	31	
10	0	0	0	0	507	509	513	511	31	32	
11	0	0	0	0	504	508	513	513	31	31	
12	0	0	0	0	502	510	512	513	31	31	
13	0	0	0	0	501	511	512	511	31	31	
14	0	0	0	0	500	512	510	509	31	31	
15	0	0	0	0	501	511	511	511	31	32	
0	0	0	0	0	500	510	512	506	31	31	
1	0	0	0	0	501	507	513	510	31	31	
2	0	0	0	0	509	508	513	505	31	31	
3	0	0	0	0	511	505	515	509	31	31	
4	0	0	0	0	505	510	512	512	31	31	
5	0	0	0	0	504	514	512	512	31	32	
6	0	0	0	0	504	514	510	511	31	32	
7	0	0	0	0	502	516	511	513	31	32	
8	0	0	0	0	502	516	512	511	31	31	
9	0	0	0	0	499	516	508	511	31	31	
10	0	0	0	0	499	515	511	509	31	32	
11	0	0	0	0	501	510	509	510	31	31	
12	0	0	0	0	501	509	513	509	31	31	
13	0	0	0	0	503	513	511	509	31	31	
14	0	0	0	0	509	515	511	508	31	31	
15	0	0	0	0	509	514	512	511	31	31	
0	0	0	0	0	504	514	509	512	31	31	
1	0	0	0	0	501	519	510	512	31	32	
2	0	0	0	0	505	516	512	510	31	31	
3	0	0	0	0	506	511	514	510	31	31	
4	0	0	0	0	505	507	511	512	31	31	
5	0	0	0	0	505	505	511	510	31	32	
6	0	0	0	0	504	502	508	510	31	31	
7	0	0	0	0	506	507	510	512	31	31	
8	0	0	0	0	505	511	512	512	31	31	
9	0	0	0	0	504	508	512	510	31	32	
10	0	0	0	0	505	511	514	507	31	32	
11	0	0	0	0	504	512	512	509	31	31	
12	0	0	0	0	508	516	512	508	31	31	
13	0	0	0	0	510	519	512	509	31	31	
14	0	0	0	0	502	518	513	510	31	31	
15	0	0	0	0	497	514	511	511	31	32	
0	0	0	0	0	500	511	513	510	31	32	
1	0	0	0	0	502	512	510	511	31	32	
2	0	0	0	0	505	512	511	512	31	32	
3	0	0	0	0	505	515	513	513	31	32	
4	0	0	0	0	503	512	511	509	31	31	
5	0	0	0	0	502	513	510	506	31	31	
6	0	0	0	0	503	512	510	511	31	31	
7	0	0	0	0	504	511	511	511	31	31	
8	0	0	0	0	501	512	511	511	31	31	
9	0	0	0	0	503	513	510	512	31	31	
10	0	0	0	0	500	517	512	510	31	32	
11	0	0	0	0	502	518	511	507	31	32	
12	0	0	0	0	504	516	511	509	31	31	
13	0	0	0	0	503	515	509	508	31	31	
14	0	0	0	0	502	514	511	510	31	31	
15	0	0	0	0	499	514	512	509	31	32	
0	0	0	0	0	502	511	511	508	31	31	
1	0	0	0	0	502	506	512	515	31	32	
2	0	0	0	0	504	507	511	510	31	32	
3	0	0	0	0	505	507	511	508	31	32	
4	0	0	0	0	500	507	509	511	31	31	
5	0	0	0	0	503	507	512	511	31	31	
6	0	0	0	0	509	509	511	512	31	31	
7	0	0	0	0	507	508	512	509	31	32	
8	0	0	0	0	504	511	510	512	31	31	
9	0	0	0	0	505	512	509	511	31	31	
10	0	0	0	0	505	515	511	513	31	31	
11	0	0	0	0	503	515	511	509	31	31	
12	0	0	0	0	506	513	514	511	31	31	
13	0	0	0	0	508	518	513	508	31	31	
14	0	0	0	0	506	521	512	510	31	31	
15	0	0	0	0	505	519	513	510	31	31	
0	0	0	0	0	503	515	510	511	31	32	
1	0	0	0	0	498	510	512	508	31	31	
2	0	0	0	0	495	508	511	511	31	31	
3	0	0	0	0	503	509	513	505	31	31	
4	0	0	0	0	504	505	514	509	31	31	
5	0	0	0	0	508	510	513	510	31	31	
6	0	0	0	0	505	513	513	510	31	31	
7	0	0	0	0	507	508	511	508	31	31	
8	0	0	0	0	507	507	509	511	31	31	
9	0	0	0	0	504	508	509	511	31	32	
10	0	0	0	0	505	508	511	510	31	32	
11	0	0	0	0	501	512	508	510	31	32	
12	0	0	0	0	500	518	509	511	31	32	
13	0	0	0	0	499	519	512	512	31	32	
14	0	0	0	0	501	519	512	511	31	32	
15	0	0	0	0	507	515	512	514	31	31	
0	0	0	0	0	504	515	512	510	31	31	
1	0	0	0	0	499	518	512	511	31	31	
2	0	0	0	0	496	519	512	512	31	31	
3	0	0	0	0	502	515	511	511	31	31	
4	0	0	0	0	505	507	512	508	31	31	
5	0	0	0	0	507	509	512	508	31	31	
6	0	0	0	0	502	507	512	505	31	31	
7	0	0	0	0	501	508	511	508	31	32	
8	0	0	0	0	504	508	512	511	31	31	
9	0	0	0	0	504	507	512	511	31	31	
10	0	0	0	0	508	507	514	511	31	31	
11	0	0	0	0	510	508	513	508	31	31	
12	0	0	0	0	508	513	513	508	31	31	
13	0	0	0	0	509	514	511	507	31	31	
14	0	0	0	0	508	516	514	510	31	31	
15	0	0	0	0	503	518	511	511	31	31	
0	0	0	0	0	503	515	510	511	31	31	
1	0	0	0	0	499	513	511	511	31	31	
2	0	0	0	0	496	517	511	507	31	31	
3	0	0	0	0	498	515	512	508	31	31	
4	0	0	0	0	503	512	511	512	31	32	
5	0	0	0	0	506	514	514	513	31	31	
6	0	0	0	0	505	516	511	514	31	31	
7	0	0	0	0	508	514	509	510	31	31	
8	0	0	0	0	505	511	511	511	31	31	
9	0	0	0	0	502	505	511	512	31	31	
10	0	0	0	0	504	510	513	511	31	31	
11	0	0	0	0	505	508	511	512	31	31	
12	0	0	0	0	502	509	513	510	31	31	
13	0	0	0	0	503	513	512	511	31	32	
14	0	0	0	0	499	510	511	509	31	31	
15	0	0	0	0	497	512	511	510	31	31	
0	0	0	0	0	499	514	511	511	31	31	
1	0	0	0	0	503	514	509	510	31	31	
2	0	0	0	0	502	513	508	509	31	31	
3	0	0	0	0	504	514	509	509	31	32	
4	0	0	0	0	504	510	511	508	31	32	
5	0	0	0	0	505	508	516	508	31	32	
6	0	0	0	0	506	510	515	508	31	31	
7	0	0	0	0	507	507	514	510	31	31	
8	0	0	0	0	506	510	512	513	31	31	
9	0	0	0	0	505	518	510	512	31	31	
10	0	0	0	0	504	521	509	512	31	31	
11	0	0	0	0	499	518	512	507	31	31	
12	0	0	0	0	498	515	511	508	31	31	
13	0	0	0	0	500	510	512	510	31	31	
14	0	0	0	0	505	509	511	512	31	31	
15	0	0	0	0	506	511	511	513	31	31	
0	0	0	0	0	509	513	513	512	31	32	
1	0	0	0	0	511	512	510	511	31	32	
2	0	0	0	0	508	511	513	510	31	32	
3	0	0	0	0	507	512	512	509	31	31	
4	0	0	0	0	506	512	512	508	31	31	
5	0	0	0	0	504	508	508	511	31	31	
6	0	0	0	0	502	508	508	510	31	31	
7	0	0	0	0	499	509	513	512	31	31	
8	0	0	0	0	500	514	510	510	31	32	
9	0	0	0	0	502	514	511	507	31	32	
10	0	0	0	0	504	517	509	510	31	31	
11	0	0	0	0	503	520	512	511	31	31	
12	0	0	0	0	503	522	513	508	31	31	
13	0	0	0	0	503	516	515	505	31	31	
14	0	0	0	0	505	515	511	508	31	32	
15	0	0	0	0	502	511	510	512	31	31	
0	0	0	0	0	501	513	510	510	31	31	
1	0	0	0	0	500	509	511	511	31	31	
2	0	0	0	0	504	504	511	511	31	31	
3	0	0	0	0	505	500	513	512	31	31	
4	0	0	0	0	501	500	512	509	31	31	
5	0	0	0	0	504	502	512	508	31	31	
6	0	0	0	0	505	505	515	510	31	31	
7	0	0	0	0	503	510	513	510	31	31	
8	0	0	0	0	508	512	512	511	31	32	
9	0	0	0	0	507	518	512	510	31	32	
10	0	0	0	0	504	530	512	509	31	32	
11	0	0	0	0	508	523	511	510	31	31	
12	0	0	0	0	505	515	511	511	31	31	
13	0	0	0	0	501	515	510	512	31	31	
14	0	0	0	0	502	513	511	510	31	31	
15	0	0	0	0	502	513	510	507	31	31	
0	0	0	0	0	499	519	509	511	31	32	
1	0	0	0	0	504	518	513	512	31	32	
2	0	0	0	0	504	510	511	512	31	32	
3	0	0	0	0	502	505	512	510	31	31	
4	0	0	0	0	503	505	514	511	31	31	
5	0	0	0	0	501	504	513	511	31	31	
6	0	0	0	0	504	508	512	511	31	31	
7	0	0	0	0	502	509	512	511	31	31	
8	0	0	0	0	502	510	512	515	31	32	
9	0	0	0	0	502	514	510	507	31	31	
10	0	0	0	0	499	516	511	503	31	31	
11	0	0	0	0	502	513	511	506	31	32	
12	0	0	0	0	501	513	511	508	31	31	
13	0	0	0	0	504	513	513	511	31	31	
14	0	0	0	0	502	513	513	511	31	31	
15	0	0	0	0	505	514	513	510	31	31	
0	0	0	0	0	506	512	511	510	31	32	
1	0	0	0	0	505	515	510	510	31	32	
2	0	0	0	0	505	514	511	511	31	31	
3	0	0	0	0	505	518	511	511	31	31	
4	0	0	0	0	506	522	514	511	31	32	
5	0	0	0	0	506	519	514	510	31	31	
6	0	0	0	0	504	509	512	513	31	31	
7	0	0	0	0	502	506	509	511	31	31	
8	0	0	0	0	502	507	511	511	31	32	
9	0	0	0	0	502	508	511	510	31	32	
10	0	0	0	0	497	515	510	510	31	31	
11	0	0	0	0	499	514	507	511	31	31	
12	0	0	0	0	507	510	510	511	31	31	
13	0	0	0	0	512	502	511	510	31	32	
14	0	0	0	0	507	500	512	507	31	32	
15	0	0	0	0	503	500	512	510	31	32	
0	0	0	0	0	505	505	512	510	31	32	
1	0	0	0	0	505	518	511	513	31	32	
2	0	0	0	0	502	515	513	507	31	31	
3	0	0	0	0	503	516	513	511	31	31	
4	0	0	0	0	500	513	512	511	31	31	
5	0	0	0	0	503	516	510	512	31	31	
6	0	0	0	0	508	517	510	513	31	31	
7	0	0	0	0	508	519	512	510	31	31	
8	0	0	0	0	512	524	511	510	31	31	
9	0	0	0	0	509	520	509	513	31	31	
10	0	0	0	0	506	518	513	510	31	31	
11	0	0	0	0	504	515	514	509	31	31	
12	0	0	0	0	502	512	510	507	31	31	
13	0	0	0	0	501	515	511	507	31	32	
14	0	0	0	0	501	517	513	508	31	31	
15	0	0	0	0	501	508	512	510	31	31	
0	0	0	0	0	498	503	510	509	31	32	
1	0	0	0	0	500	505	511	510	31	31	
2	0	0	0	0	508	507	511	512	31	31	
3	0	0	0	0	505	506	511	510	31	31	
4	0	0	0	0	500	507	509	510	31	31	
5	0	0	0	0	496	509	512	515	31	31	
6	0	0	0	0	496	508	512	511	31	32	
7	0	0	0	0	497	505	514	507	31	32	
8	0	0	0	0	501	511	515	503	31	32	
9	0	0	0	0	505	520	512	507	31	31	
10	0	0	0	0	504	531	511	509	31	31	
11	0	0	0	0	503	526	515	512	31	32	
12	0	0	0	0	504	518	511	512	31	32	
13	0	0	0	0	507	511	510	512	31	31	
14	0	0	0	0	509	502	510	511	31	31	
15	0	0	0	0	507	497	513	509	31	31	
0	0	0	0	0	506	499	512	510	31	31	
1	0	0	0	0	504	507	512	509	31	31	
2	0	0	0	0	501	514	512	510	31	31	
3	0	0	0	0	500	518	510	510	31	31	
4	0	0	0	0	503	512	511	511	31	31	
5	0	0	0	0	503	511	512	513	31	31	
6	0	0	0	0	504	511	513	511	31	31	
7	0	0	0	0	508	513	513	510	31	31	
8	0	0	0	0	505	513	510	510	31	31	
9	0	0	0	0	499	514	511	511	31	32	
10	0	0	0	0	499	518	511	512	31	32	
11	0	0	0	0	500	516	511	510	31	32	
12	0	0	0	0	503	513	508	512	31	32	
13	0	0	0	0	499	507	512	510	31	32	
14	0	0	0	0	498	511	512	511	31	31	
15	0	0	0	0	499	515	514	514	31	31	
0	0	0	0	0	499	515	512	511	31	32	
1	0	0	0	0	504	513	511	511	31	31	
2	0	0	0	0	505	513	511	509	31	31	
3	0	0	0	0	507	515	512	505	31	31	
4	0	0	0	0	510	517	512	509	31	31	
5	0	0	0	0	508	520	510	511	31	32	
6	0	0	0	0	506	519	511	508	31	32	
7	0	0	0	0	505	516	511	508	31	32	
8	0	0	0	0	509	512	513	509	31	31	
9	0	0	0	0	509	514	515	508	31	32	
10	0	0	0	0	507	511	512	510	31	31	
11	0	0	0	0	504	508	512	508	31	31	
12	0	0	0	0	504	508	511	510	31	31	
13	0	0	0	0	500	510	510	513	31	31	
14	0	0	0	0	497	504	511	512	31	31	
15	0	0	0	0	499	506	511	511	31	31	
0	0	0	0	0	504	504	511	512	31	31	
1	0	0	0	0	505	510	511	514	31	32	
2	0	0	0	0	505	510	510	510	31	32	
3	0	0	0	0	506	509	508	509	31	31	
4	0	0	0	0	503	510	511	506	31	32	
5	0	0	0	0	506	512	512	508	31	31	
6	0	0	0	0	505	510	512	511	31	31	
7	0	0	0	0	500	511	510	512	31	31	
8	0	0	0	0	504	516	512	508	31	31	
9	0	0	0	0	507	515	511	511	31	31	
10	0	0	0	0	505	519	511	510	31	31	
11	0	0	0	0	501	520	512	508	31	31	
12	0	0	0	0	498	518	512	509	31	31	
13	0	0	0	0	502	512	512	507	31	31	
14	0	0	0	0	501	512	511	510	31	31	
15	0	0	0	0	498	510	512	511	31	32	
0	0	0	0	0	500	510	511	511	31	31	
1	0	0	0	0	500	508	513	510	31	31	
2	0	0	0	0	504	514	515	510	31	31	
3	0	0	0	0	501	514	512	508	31	31	
4	0	0	0	0	507	513	509	510	31	31	
5	0	0	0	0	507	519	508	512	31	32	
6	0	0	0	0	508	518	511	510	31	32	
7	0	0	0	0	507	514	513	510	31	32	
8	0	0	0	0	500	516	515	511	31	32	
9	0	0	0	0	498	512	512	514	31	32	
10	0	0	0	0	500	505	513	509	31	32	
11	0	0	0	0	507	504	515	508	31	31	
12	0	0	0	0	506	506	513	510	31	32	
13	0	0	0	0	509	504	511	508	31	32	
14	0	0	0	0	506	507	512	511	31	31	
15	0	0	0	0	502	512	510	511	31	31	
0	0	0	0	0	501	515	510	510	31	31	
1	0	0	0	0	502	508	511	509	31	31	
2	0	0	0	0	502	508	515	510	31	31	
3	0	0	0	0	506	510	511	509	31	31	
4	0	0	0	0	510	519	512	510	31	31	
5	0	0	0	0	512	521	511	509	31	31	
6	0	0	0	0	508	520	511	508	31	32	
7	0	0	0	0	502	515	511	512	31	32	
8	0	0	0	0	502	514	511	511	31	32	
9	0	0	0	0	503	513	511	510	31	32	
10	0	0	0	0	504	509	510	512	31	32	
11	0	0	0	0	504	509	510	508	31	32	
12	0	0	0	0	507	509	511	509	31	32	
13	0	0	0	0	505	513	512	511	31	31	
14	0	0	0	0	504	513	511	511	31	31	
15	0	0	0	0	504	514	509	511	31	31	
0	0	0	0	0	506	512	511	509	31	31	
1	0	0	0	0	502	508	512	507	31	31	
2	0	0	0	0	498	508	511	508	31	32	
3	0	0	0	0	498	513	512	510	31	31	
4	0	0	0	0	500	515	511	510	31	31	
5	0	0	0	0	502	522	511	508	31	31	
6	0	0	0	0	498	519	510	511	31	31	
7	0	0	0	0	503	509	511	508	31	31	
8	0	0	0	0	502	508	511	512	31	31	
9	0	0	0	0	500	510	512	513	31	32	
10	0	0	0	0	503	511	509	511	31	32	
11	0	0	0	0	507	511	513	511	31	31	
12	0	0	0	0	507	509	512	508	31	31	
13	0	0	0	0	508	511	512	511	31	31	
14	0	0	0	0	508	510	511	514	31	32	
15	0	0	0	0	507	509	512	513	31	32	
0	0	0	0	0	508	511	515	508	31	31	
1	0	0	0	0	504	512	511	506	31	31	
2	0	0	0	0	505	514	510	507	31	31	
3	0	0	0	0	504	514	510	508	31	31	
4	0	0	0	0	504	518	511	512	31	31	
5	0	0	0	0	501	516	511	509	31	31	
6	0	0	0	0	498	515	511	510	31	31	
7	0	0	0	0	499	516	514	510	31	32	
8	0	0	0	0	497	515	510	510	31	31	
9	0	0	0	0	501	514	513	510	31	31	
10	0	0	0	0	502	507	511	512	31	31	
11	0	0	0	0	502	504	511	512	31	31	
12	0	0	0	0	501	504	512	510	31	31	
13	0	0	0	0	501	509	509	511	31	31	
14	0	0	0	0	506	507	509	510	31	31	
15	0	0	0	0	505	508	511	509	31	31	
0	0	0	0	0	509	512	512	509	31	31	
1	0	0	0	0	512	515	515	512	31	32	
2	0	0	0	0	512	512	511	513	31	31	
3	0	0	0	0	514	514	513	510	31	31	
4	0	0	0	0	508	516	513	508	31	31	
5	0	0	0	0	505	519	513	511	31	31	
6	0	0	0	0	496	516	511	510	31	32	
7	0	0	0	0	499	520	509	511	31	31	
8	0	0	0	0	496	516	510	510	31	31	
9	0	0	0	0	495	512	511	512	31	31	
10	0	0	0	0	501	511	511	510	31	31	
11	0	0	0	0	504	511	511	511	31	31	
12	0	0	0	0	505	512	512	508	31	31	
13	0	0	0	0	507	511	514	511	31	31	
14	0	0	0	0	508	513	513	507	31	31	
15	0	0	0	0	505	510	513	509	31	32	
0	0	0	0	0	503	507	512	510	31	32	
1	0	0	0	0	504	512	514	511	31	32	
2	0	0	0	0	507	515	511	511	31	32	
3	0	0	0	0	508	514	513	507	31	31	
4	0	0	0	0	508	514	513	507	31	31	
5	0	0	0	0	505	515	511	511	31	31	
6	0	0	0	0	500	513	511	513	31	31	
7	0	0	0	0	500	513	510	512	31	31	
8	0	0	0	0	500	518	511	512	31	32	
9	0	0	0	0	501	515	510	510	31	31	
10	0	0	0	0	501	516	512	510	31	32	
11	0	0	0	0	502	519	512	508	31	31	
12	0	0	0	0	501	514	513	508	31	31	
13	0	0	0	0	502	510	512	510	31	31	
14	0	0	0	0	505	500	510	511	31	31	
15	0	0	0	0	508	498	509	510	31	31	
0	0	0	0	0	503	502	511	510	31	31	
1	0	0	0	0	498	508	511	509	31	31	
2	0	0	0	0	498	512	511	508	31	31	
3	0	0	0	0	500	513	512	508	31	31	
4	0	0	0	0	504	516	513	510	31	31	
5	0	0	0	0	506	513	513	510	31	31	
6	0	0	0	0	505	513	512	512	31	31	
7	0	0	0	0	503	513	512	509	31	32	
8	0	0	0	0	502	515	510	509	31	31	
9	0	0	0	0	504	514	510	511	31	32	
10	0	0	0	0	505	514	512	515	31	32	
11	0	0	0	0	504	516	512	514	31	32	
12	0	0	0	0	502	519	512	508	31	32	
13	0	0	0	0	499	520	508	507	31	31	
14	0	0	0	0	500	516	507	508	31	32	
15	0	0	0	0	503	512	513	510	31	31	
0	0	0	0	0	506	511	515	508	31	31	
1	0	0	0	0	501	509	513	508	31	31	
2	0	0	0	0	500	509	511	511	31	32	
3	0	0	0	0	505	507	513	512	31	32	
4	0	0	0	0	510	508	513	511	31	32	
5	0	0	0	0	507	509	510	509	31	31	
6	0	0	0	0	508	512	511	511	31	31	
7	0	0	0	0	507	513	512	511	31	32	
8	0	0	0	0	506	515	511	511	31	31	
9	0	0	0	0	506	516	511	510	31	31	
10	0	0	0	0	504	512	511	510	31	32	
11	0	0	0	0	503	512	511	511	31	31	
12	0	0	0	0	503	512	512	510	31	31	
13	0	0	0	0	502	512	511	510	31	31	
14	0	0	0	0	503	513	511	511	31	31	
15	0	0	0	0	501	512	510	510	31	31	
0	0	0	0	0	503	511	510	507	31	32	
1	0	0	0	0	502	512	512	509	31	31	
2	0	0	0	0	502	515	513	512	31	31	
3	0	0	0	0	502	516	511	512	31	31	
4	0	0	0	0	503	519	511	511	31	32	
5	0	0	0	0	501	519	514	515	31	31	
6	0	0	0	0	502	516	512	509	31	31	
7	0	0	0	0	499	513	511	507	31	31	
8	0	0	0	0	496	511	510	505	31	31	
9	0	0	0	0	502	510	513	510	31	32	
10	0	0	0	0	505	504	512	510	31	31	
11	0	0	0	0	508	505	512	511	31	31	
12	0	0	0	0	508	502	514	511	31	32	
13	0	0	0	0	505	503	514	510	31	32	
14	0	0	0	0	504	507	510	512	31	32	
15	0	0	0	0	504	507	507	510	31	31	
0	0	0	0	0	504	509	508	509	31	31	
1	0	0	0	0	505	511	511	511	31	31	
2	0	0	0	0	505	514	514	511	31	31	
3	0	0	0	0	507	519	513	509	31	31	
4	0	0	0	0	507	517	514	510	31	31	
5	0	0	0	0	504	515	513	509	31	31	
6	0	0	0	0	504	515	514	511	31	31	
7	0	0	0	0	503	516	513	511	31	31	
8	0	0	0	0	504	513	513	511	31	31	
9	0	0	0	0	504	512	510	510	31	31	
10	0	0	0	0	504	514	510	511	31	31	
11	0	0	0	0	508	515	510	511	31	31	
12	0	0	0	0	506	515	514	507	31	31	
13	0	0	0	0	505	514	512	509	31	32	
14	0	0	0	0	502	512	512	508	31	32	
15	0	0	0	0	501	511	510	511	31	32	
0	0	0	0	0	502	512	512	512	31	32	
1	0	0	0	0	501	512	511	511	31	31	
2	0	0	0	0	501	513	510	511	31	31	
3	0	0	0	0	501	514	513	511	31	31	
4	0	0	0	0	503	515	512	508	31	31	
5	0	0	0	0	502	518	513	511	31	31	
6	0	0	0	0	502	519	513	508	31	31	
7	0	0	0	0	504	516	512	509	31	31	
8	0	0	0	0	503	511	511	511	31	31	
9	0	0	0	0	500	510	512	512	31	31	
10	0	0	0	0	502	507	510	514	31	31	
11	0	0	0	0	504	504	510	511	31	32	
12	0	0	0	0	502	507	512	513	31	32	
13	0	0	0	0	503	510	513	505	31	31	
14	0	0	0	0	504	504	512	509	31	31	
15	0	0	0	0	506	507	512	508	31	31	
0	0	0	0	0	500	506	511	507	31	31	
1	0	0	0	0	504	508	511	508	31	32	
2	0	0	0	0	507	514	512	510	31	31	
3	0	0	0	0	507	515	512	508	31	32	
4	0	0	0	0	507	515	512	511	31	32	
5	0	0	0	0	508	519	510	510	31	32	
6	0	0	0	0	505	516	513	510	31	31	
7	0	0	0	0	502	513	511	510	31	31	
8	0	0	0	0	503	516	510	512	31	31	
9	0	0	0	0	501	517	511	511	31	31	
10	0	0	0	0	503	514	512	509	31	31	
11	0	0	0	0	503	512	512	512	31	31	
12	0	0	0	0	503	513	511	513	31	31	
13	0	0	0	0	502	510	512	511	31	31	
14	0	0	0	0	504	508	510	508	31	31	
15	0	0	0	0	507	511	511	509	31	31	
0	0	0	0	0	507	513	509	510	31	31	
1	0	0	0	0	507	512	512	511	31	31	
2	0	0	0	0	505	515	514	508	31	31	
3	0	0	0	0	504	514	515	509	31	31	
4	0	0	0	0	501	513	513	507	31	32	
5	0	0	0	0	500	514	512	510	31	32	
6	0	0	0	0	500	512	510	511	31	32	
7	0	0	0	0	499	508	512	510	31	31	
8	0	0	0	0	500	516	510	512	31	32	
9	0	0	0	0	500	519	511	509	31	31	
10	0	0	0	0	502	516	510	509	31	31	
11	0	0	0	0	500	515	508	510	31	31	
12	0	0	0	0	503	516	512	511	31	31	
13	0	0	0	0	506	514	510	509	31	31	
14	0	0	0	0	508	508	511	510	31	31	
15	0	0	0	0	512	503	512	511	31	31	
0	0	0	0	0	507	506	513	509	31	31	
1	0	0	0	0	503	505	511	513	31	32	
2	0	0	0	0	503	515	511	514	31	32	
3	0	0	0	0	502	520	511	510	31	32	
4	0	0	0	0	501	518	512	510	31	32	
5	0	0	0	0	497	517	512	510	31	32	
6	0	0	0	0	495	512	513	511	31	31	
7	0	0	0	0	500	503	512	507	31	31	
8	0	0	0	0	500	499	511	509	31	31	
9	0	0	0	0	501	499	510	510	31	31	
10	0	0	0	0	504	506	510	510	31	32	
11	0	0	0	0	504	509	511	508	31	32	
12	0	0	0	0	504	509	511	512	31	31	
13	0	0	0	0	507	508	510	514	31	31	
14	0	0	0	0	509	511	513	509	31	31	
15	0	0	0	0	511	520	513	510	31	32	
0	0	0	0	0	511	521	513	511	31	31	
1	0	0	0	0	508	521	511	508	31	32	
2	0	0	0	0	504	519	511	510	31	31	
3	0	0	0	0	505	516	512	510	31	31	
4	0	0	0	0	499	514	513	510	31	31	
5	0	0	0	0	503	519	511	509	31	31	
6	0	0	0	0	504	516	513	509	31	31	
7	0	0	0	0	503	518	511	511	31	31	
8	0	0	0	0	505	513	511	512	31	31	
9	0	0	0	0	502	511	508	511	31	31	
10	0	0	0	0	503	512	509	509	31	31	
11	0	0	0	0	497	513	510	509	31	31	
12	0	0	0	0	499	514	511	510	31	32	
13	0	0	0	0	498	508	513	513	31	32	
14	0	0	0	0	498	505	513	512	31	31	
15	0	0	0	0	503	510	513	512	31	31	
0	0	0	0	0	511	509	512	505	31	32	
1	0	0	0	0	511	513	511	510	31	31	
2	0	0	0	0	506	519	511	509	31	32	
3	0	0	0	0	501	518	512	509	31	32	
4	0	0	0	0	505	515	511	510	31	32	
5	0	0	0	0	505	509	511	509	31	31	
6	0	0	0	0	502	508	511	513	31	31	
7	0	0	0	0	501	507	512	513	31	31	
8	0	0	0	0	501	504	512	511	31	31	
9	0	0	0	0	504	509	510	505	31	31	
10	0	0	0	0	508	513	513	507	31	31	
11	0	0	0	0	504	512	511	508	31	31	
12	0	0	0	0	503	512	513	510	31	31	
13	0	0	0	0	499	510	508	511	31	31	
14	0	0	0	0	500	515	509	512	31	32	
15	0	0	0	0	502	514	510	513	31	32	
0	0	0	0	0	500	514	511	510	31	32	
1	0	0	0	0	504	512	510	511	31	32	
2	0	0	0	0	499	510	511	509	31	32	
3	0	0	0	0	501	508	513	510	31	31	
4	0	0	0	0	499	512	513	511	31	31	
5	0	0	0	0	501	512	511	511	31	31	
6	0	0	0	0	499	513	513	508	31	31	
7	0	0	0	0	504	518	511	510	31	31	
8	0	0	0	0	505	519	514	510	31	31	
9	0	0	0	0	507	525	512	509	31	31	
10	0	0	0	0	505	523	511	508	31	31	
11	0	0	0	0	503	513	510	510	31	31	
12	0	0	0	0	503	501	512	511	31	31	
13	0	0	0	0	505	501	513	513	31	31	
14	0	0	0	0	504	501	513	514	31	31	
15	0	0	0	0	508	503	509	509	31	32	
0	0	0	0	0	506	504	510	509	31	31	
1	0	0	0	0	504	505	510	509	31	31	
2	0	0	0	0	506	506	512	510	31	32	
3	0	0	0	0	502	512	511	511	31	31	
4	0	0	0	0	500	515	511	511	31	32	
5	0	0	0	0	501	514	511	510	31	31	
6	0	0	0	0	500	519	511	508	31	31	
7	0	0	0	0	503	523	510	510	31	31	
8	0	0	0	0	502	527	509	511	31	31	
9	0	0	0	0	502	523	508	511	31	31	
10	0	0	0	0	504	515	514	510	31	31	
11	0	0	0	0	504	515	512	511	31	31	
12	0	0	0	0	504	509	513	508	31	32	
13	0	0	0	0	500	507	512	509	31	31	
14	0	0	0	0	501	498	513	512	31	31	
15	0	0	0	0	501	500	510	512	31	31	
0	0	0	0	0	499	504	510	511	31	32	
1	0	0	0	0	504	503	514	505	31	32	
2	0	0	0	0	505	513	512	510	31	32	
3	0	0	0	0	504	517	512	511	31	31	
4	0	0	0	0	502	520	513	511	31	32	
5	0	0	0	0	507	522	512	511	31	31	
6	0	0	0	0	505	522	513	508	31	31	
7	0	0	0	0	504	519	511	506	31	31	
8	0	0	0	0	503	516	511	511	31	31	
9	0	0	0	0	500	516	512	511	31	31	
10	0	0	0	0	503	514	512	511	31	31	
11	0	0	0	0	498	511	512	512	31	31	
12	0	0	0	0	504	510	511	512	31	31	
13	0	0	0	0	506	511	512	510	31	32	
14	0	0	0	0	507	509	512	512	31	31	
15	0	0	0	0	506	510	512	510	31	31	
0	0	0	0	0	505	507	510	510	31	32	
1	0	0	0	0	505	508	512	508	31	31	
2	0	0	0	0	508	514	512	511	31	31	
3	0	0	0	0	508	517	511	510	31	31	
4	0	0	0	0	506	512	512	512	31	31	
5	0	0	0	0	503	508	512	510	31	32	
6	0	0	0	0	504	509	511	512	31	31	
7	0	0	0	0	506	509	511	512	31	32	
8	0	0	0	0	508	508	511	511	31	32	
9	0	0	0	0	507	509	510	511	31	31	
10	0	0	0	0	504	512	511	508	31	31	
11	0	0	0	0	502	514	512	508	31	31	
12	0	0	0	0	505	515	512	512	31	32	
13	0	0	0	0	504	515	512	511	31	32	
14	0	0	0	0	505	515	510	510	31	32	
15	0	0	0	0	503	517	511	509	31	31	
0	0	0	0	0	507	514	510	508	31	31	
1	0	0	0	0	504	516	511	510	31	31	
2	0	0	0	0	502	519	512	510	31	31	
3	0	0	0	0	501	518	511	509	31	31	
4	0	0	0	0	502	515	512	508	31	31	
5	0	0	0	0	502	509	511	510	31	32	
6	0	0	0	0	506	502	514	511	31	31	
7	0	0	0	0	506	499	513	510	31	31	
8	0	0	0	0	504	500	511	510	31	31	
9	0	0	0	0	499	498	510	512	31	31	
10	0	0	0	0	502	507	511	509	31	31	
11	0	0	0	0	505	513	512	508	31	31	
12	0	0	0	0	507	516	513	508	31	32	
13	0	0	0	0	511	515	511	510	31	32	
14	0	0	0	0	510	515	511	510	31	31	
15	0	0	0	0	514	513	512	512	31	31	
0	0	0	0	0	509	516	513	512	31	31	
1	0	0	0	0	504	522	511	511	31	31	
2	0	0	0	0	498	522	511	508	31	31	
3	0	0	0	0	499	516	510	509	31	31	
4	0	0	0	0	499	512	511	508	31	31	
5	0	0	0	0	503	512	511	513	31	31	
6	0	0	0	0	503	511	513	509	31	31	
7	0	0	0	0	501	513	514	509	31	32	
8	0	0	0	0	502	515	512	510	31	31	
9	0	0	0	0	501	515	513	512	31	31	
10	0	0	0	0	503	515	513	507	31	32	
11	0	0	0	0	502	511	510	509	31	32	
12	0	0	0	0	505	506	512	511	31	32	
13	0	0	0	0	507	506	511	512	31	31	
14	0	0	0	0	508	508	513	514	31	31	
15	0	0	0	0	506	510	512	511	31	31	
0	0	0	0	0	503	511	512	507	31	31	
1	0	0	0	0	503	508	512	510	31	31	
2	0	0	0	0	504	513	512	511	31	31	
3	0	0	0	0	504	514	513	511	31	31	
4	0	0	0	0	506	515	511	511	31	31	
5	0	0	0	0	507	517	511	509	31	31	
6	0	0	0	0	507	519	511	508	31	31	
7	0	0	0	0	504	518	512	512	31	31	
8	0	0	0	0	504	514	511	513	31	31	
9	0	0	0	0	502	513	512	511	31	31	
10	0	0	0	0	504	512	512	513	31	31	
11	0	0	0	0	503	510	510	511	31	31	
12	0	0	0	0	504	509	511	511	31	31	
13	0	0	0	0	508	514	511	508	31	31	
14	0	0	0	0	507	515	514	505	31	31	
15	0	0	0	0	506	517	512	509	31	31	
0	0	0	0	0	502	514	511	510	31	31	
1	0	0	0	0	501	510	512	513	31	31	
2	0	0	0	0	496	503	511	512	31	31	
3	0	0	0	0	497	502	511	508	31	31	
4	0	0	0	0	496	505	516	507	31	32	
5	0	0	0	0	500	513	517	508	31	32	
6	0	0	0	0	502	517	514	512	31	32	
7	0	0	0	0	504	515	514	508	31	31	
8	0	0	0	0	509	515	515	510	31	32	
9	0	0	0	0	510	514	515	511	31	32	
10	0	0	0	0	512	510	515	507	31	31	
11	0	0	0	0	512	508	515	509	31	31	
12	0	0	0	0	509	510	511	512	31	31	
13	0	0	0	0	510	514	511	512	31	31	
14	0	0	0	0	508	521	509	511	31	31	
15	0	0	0	0	505	516	513	510	31	31	
0	0	0	0	0	504	512	512	512	31	32	
1	0	0	0	0	504	512	510	511	31	31	
2	0	0	0	0	504	508	511	508	31	31	
3	0	0	0	0	502	509	512	508	31	31	
4	0	0	0	0	500	508	511	509	31	32	
5	0	0	0	0	503	509	510	510	31	32	
6	0	0	0	0	502	511	508	510	31	31	
7	0	0	0	0	501	514	508	513	31	31	
8	0	0	0	0	505	514	508	513	31	31	
9	0	0	0	0	507	513	509	512	31	31	
10	0	0	0	0	502	515	512	509	31	31	
11	0	0	0	0	503	517	512	508	31	31	
12	0	0	0	0	498	512	511	511	31	31	
13	0	0	0	0	494	511	510	511	31	31	
14	0	0	0	0	495	510	509	512	31	31	
15	0	0	0	0	497	506	511	504	31	31	
0	0	0	0	0	504	504	513	508	31	31	
1	0	0	0	0	505	513	510	509	31	32	
2	0	0	0	0	504	518	510	512	31	32	
3	0	0	0	0	499	515	510	513	31	32	
4	0	0	0	0	498	515	511	513	31	32	
5	0	0	0	0	501	511	512	511	31	31	
6	0	0	0	0	505	508	511	507	31	31	
7	0	0	0	0	508	510	512	510	31	31	
8	0	0	0	0	511	512	512	510	31	31	
9	0	0	0	0	509	511	511	507	31	31	
10	0	0	0	0	506	512	510	510	31	31	
11	0	0	0	0	506	512	513	511	31	31	
12	0	0	0	0	503	513	512	511	31	31	
13	0	0	0	0	504	514	515	511	31	32	
14	0	0	0	0	503	517	512	509	31	31	
15	0	0	0	0	503	514	510	507	31	32	
0	0	0	0	0	504	515	513	512	31	31	
1	0	0	0	0	504	514	514	513	31	31	
2	0	0	0	0	502	512	512	511	31	31	
3	0	0	0	0	503	512	510	510	31	31	
4	0	0	0	0	499	511	508	507	31	31	
5	0	0	0	0	501	511	509	508	31	32	
6	0	0	0	0	500	514	510	510	31	32	
7	0	0	0	0	502	511	509	508	31	31	
8	0	0	0	0	499	513	510	506	31	31	
9	0	0	0	0	499	511	513	511	31	32	
10	0	0	0	0	501	512	511	511	31	31	
11	0	0	0	0	498	512	510	510	31	32	
12	0	0	0	0	499	512	511	510	31	31	
13	0	0	0	0	503	512	511	511	31	31	
14	0	0	0	0	508	512	512	511	31	31	
15	0	0	0	0	510	517	512	512	31	31	
0	0	0	0	0	505	519	513	511	31	31	
1	0	0	0	0	504	515	510	509	31	31	
2	0	0	0	0	507	508	513	510	31	31	
3	0	0	0	0	509	500	513	511	31	31	
4	0	0	0	0	509	504	513	509	31	31	
5	0	0	0	0	510	504	512	512	31	31	
6	0	0	0	0	505	507	513	512	31	31	
7	0	0	0	0	504	510	511	510	31	31	
8	0	0	0	0	504	510	512	510	31	31	
9	0	0	0	0	501	513	512	510	31	31	
10	0	0	0	0	500	512	511	511	31	31	
11	0	0	0	0	502	513	510	508	31	31	
12	0	0	0	0	500	517	510	508	31	31	
13	0	0	0	0	503	518	512	510	31	32	
14	0	0	0	0	501	517	509	512	31	32	
15	0	0	0	0	503	514	512	510	31	31	
0	0	0	0	0	502	512	511	509	31	31	
1	0	0	0	0	503	511	511	510	31	31	
2	0	0	0	0	503	514	510	515	31	31	
3	0	0	0	0	503	513	512	513	31	31	
4	0	0	0	0	501	514	512	512	31	31	
5	0	0	0	0	507	515	512	502	31	32	
6	0	0	0	0	504	517	511	507	31	32	
7	0	0	0	0	504	513	513	508	31	31	
8	0	0	0	0	506	513	513	510	31	31	
9	0	0	0	0	506	516	514	512	31	31	
10	0	0	0	0	502	513	511	509	31	31	
11	0	0	0	0	499	512	509	509	31	31	
12	0	0	0	0	500	515	510	509	31	32	
13	0	0	0	0	500	516	512	508	31	32	
14	0	0	0	0	503	515	513	512	31	31	
15	0	0	0	0	507	511	512	511	31	32	
0	0	0	0	0	507	510	511	510	31	31	
1	0	0	0	0	508	510	510	510	31	31	
2	0	0	0	0	503	514	511	509	31	32	
3	0	0	0	0	504	515	510	507	31	31	
4	0	0	0	0	503	514	509	510	31	31	
5	0	0	0	0	503	508	511	510	31	31	
6	0	0	0	0	504	506	511	511	31	31	
7	0	0	0	0	503	502	513	510	31	31	
8	0	0	0	0	501	502	511	510	31	31	
9	0	0	0	0	500	505	511	511	31	31	
10	0	0	0	0	502	508	512	510	31	31	
11	0	0	0	0	502	512	512	512	31	31	
12	0	0	0	0	500	515	512	511	31	32	
13	0	0	0	0	502	516	512	512	31	32	
14	0	0	0	0	507	518	510	508	31	32	
15	0	0	0	0	507	515	508	508	31	32	
0	0	0	0	0	506	513	511	510	31	32	
1	0	0	0	0	504	512	513	511	31	31	
2	0	0	0	0	504	510	512	511	31	31	
3	0	0	0	0	504	512	512	510	31	31	
4	0	0	0	0	503	516	512	512	31	31	
5	0	0	0	0	507	515	511	510	31	31	
6	0	0	0	0	504	511	510	509	31	31	
7	0	0	0	0	506	513	514	509	31	31	
8	0	0	0	0	505	513	513	510	31	31	
9	0	0	0	0	502	514	511	511	31	31	
10	0	0	0	0	502	513	511	510	31	31	
11	0	0	0	0	502	516	512	509	31	31	
12	0	0	0	0	502	513	512	511	31	31	
13	0	0	0	0	502	515	510	510	31	32	
14	0	0	0	0	504	513	511	509	31	31	
15	0	0	0	0	504	514	509	511	31	31	
0	0	0	0	0	502	514	511	510	31	31	
1	0	0	0	0	500	512	514	509	31	32	
2	0	0	0	0	503	513	512	511	31	31	
3	0	0	0	0	502	514	511	509	31	31	
4	0	0	0	0	501	515	510	509	31	31	
5	0	0	0	0	502	512	510	509	31	31	
6	0	0	0	0	503	511	511	508	31	31	
7	0	0	0	0	504	507	512	510	31	32	
8	0	0	0	0	504	509	512	511	31	31	
9	0	0	0	0	505	511	512	510	31	32	
10	0	0	0	0	500	511	512	510	31	31	
11	0	0	0	0	504	510	512	509	31	31	
12	0	0	0	0	503	509	512	511	31	31	
13	0	0	0	0	505	510	512	508	31	31	
14	0	0	0	0	505	510	510	510	31	31	
15	0	0	0	0	504	508	509	510	31	32	
0	0	0	0	0	504	510	510	511	31	32	
1	0	0	0	0	505	513	509	511	31	31	
2	0	0	0	0	505	514	513	511	31	32	
3	0	0	0	0	503	515	513	507	31	32	
4	0	0	0	0	505	513	514	510	31	32	
5	0	0	0	0	506	515	513	511	31	31	
6	0	0	0	0	504	517	511	512	31	31	
7	0	0	0	0	507	517	511	510	31	31	
8	0	0	0	0	507	516	512	510	31	32	
9	0	0	0	0	507	516	512	511	31	31	
10	0	0	0	0	506	520	511	512	31	31	
11	0	0	0	0	505	512	512	510	31	31	
12	0	0	0	0	502	508	513	508	31	31	
13	0	0	0	0	501	509	513	511	31	31	
14	0	0	0	0	502	509	510	512	31	31	
15	0	0	0	0	499	508	511	510	31	31	
0	0	0	0	0	496	509	510	511	31	31	
1	0	0	0	0	497	510	511	510	31	31	
2	0	0	0	0	499	512	512	510	31	32	
3	0	0	0	0	504	510	513	510	31	32	
4	0	0	0	0	502	513	513	510	31	32	
5	0	0	0	0	501	515	513	510	31	31	
6	0	0	0	0	499	513	512	512	31	31	
7	0	0	0	0	499	511	513	508	31	31	
8	0	0	0	0	504	510	511	511	31	31	
9	0	0	0	0	507	509	509	509	31	31	
10	0	0	0	0	505	505	512	510	31	32	
11	0	0	0	0	509	506	511	512	31	31	
12	0	0	0	0	506	508	512	511	31	31	
13	0	0	0	0	508	508	513	508	31	32	
14	0	0	0	0	508	514	512	511	31	31	
15	0	0	0	0	504	514	512	511	31	31	
0	0	0	0	0	502	517	511	511	31	31	
1	0	0	0	0	503	518	510	512	31	31	
2	0	0	0	0	504	516	509	511	31	31	
3	0	0	0	0	503	515	510	511	31	31	
4	0	0	0	0	504	515	513	509	31	31	
5	0	0	0	0	503	515	512	508	31	31	
6	0	0	0	0	506	518	511	507	31	31	
7	0	0	0	0	505	516	510	510	31	31	
8	0	0	0	0	503	515	511	510	31	32	
9	0	0	0	0	503	513	509	509	31	31	
10	0	0	0	0	503	511	512	510	31	31	
11	0	0	0	0	505	509	510	512	31	31	
12	0	0	0	0	504	505	511	511	31	32	
13	0	0	0	0	503	507	513	510	31	32	
14	0	0	0	0	502	508	513	509	31	31	
15	0	0	0	0	502	506	513	510	31	32	
0	0	0	0	0	502	508	512	511	31	31	
1	0	0	0	0	503	512	511	510	31	31	
2	0	0	0	0	505	515	513	511	31	31	
3	0	0	0	0	505	513	512	508	31	31	
4	0	0	0	0	502	511	512	510	31	31	
5	0	0	0	0	500	510	515	510	31	31	
6	0	0	0	0	500	510	513	512	31	31	
7	0	0	0	0	503	512	511	512	31	32	
8	0	0	0	0	499	514	510	512	31	32	
9	0	0	0	0	501	515	511	508	31	31	
10	0	0	0	0	506	517	510	507	31	31	
11	0	0	0	0	504	516	511	505	31	31	
12	0	0	0	0	501	516	512	509	31	31	
13	0	0	0	0	501	515	510	509	31	31	
14	0	0	0	0	507	512	513	510	31	31	
15	0	0	0	0	504	507	513	511	31	31	
0	0	0	0	0	504	508	513	508	31	31	
1	0	0	0	0	506	515	511	510	31	31	
2	0	0	0	0	509	508	513	510	31	31	
3	0	0	0	0	508	511	510	508	31	31	
4	0	0	0	0	506	506	511	508	31	31	
5	0	0	0	0	505	508	510	509	31	31	
6	0	0	0	0	508	510	510	511	31	32	
7	0	0	0	0	504	511	512	513	31	31	
8	0	0	0	0	503	508	512	511	31	32	
9	0	0	0	0	503	507	512	512	31	32	
10	0	0	0	0	504	510	512	512	31	31	
11	0	0	0	0	505	514	509	509	31	31	
12	0	0	0	0	505	517	510	508	31	31	
13	0	0	0	0	503	518	510	508	31	31	
14	0	0	0	0	503	517	510	511	31	31	
15	0	0	0	0	505	519	509	513	31	31	
0	0	0	0	0	503	518	510	512	31	32	
1	0	0	0	0	501	517	511	511	31	32	
2	0	0	0	0	503	515	510	509	31	31	
3	0	0	0	0	503	513	511	509	31	31	
4	0	0	0	0	500	509	512	509	31	31	
5	0	0	0	0	501	514	512	509	31	32	
6	0	0	0	0	504	512	510	510	31	31	
7	0	0	0	0	504	507	513	511	31	31	
8	0	0	0	0	504	507	513	510	31	32	
9	0	0	0	0	504	507	511	509	31	31	
10	0	0	0	0	504	508	513	511	31	31	
11	0	0	0	0	504	511	512	509	31	31	
12	0	0	0	0	503	516	513	512	31	31	
13	0	0	0	0	505	514	511	512	31	31	
14	0	0	0	0	507	513	509	511	31	31	
15	0	0	0	0	505	515	509	509	31	32	
0	0	0	0	0	504	514	511	508	31	31	
1	0	0	0	0	498	516	511	510	31	31	
2	0	0	0	0	497	517	509	511	31	31	
3	0	0	0	0	497	514	512	512	31	31	
4	0	0	0	0	500	510	513	513	31	31	
5	0	0	0	0	503	511	513	513	31	31	
6	0	0	0	0	503	510	512	508	31	32	
7	0	0	0	0	506	513	512	505	31	32	
8	0	0	0	0	504	513	512	509	31	32	
9	0	0	0	0	507	514	512	513	31	31	
10	0	0	0	0	504	510	512	510	31	32	
11	0	0	0	0	503	508	511	509	31	31	
12	0	0	0	0	504	507	513	510	31	31	
13	0	0	0	0	505	510	510	510	31	31	
14	0	0	0	0	505	514	511	509	31	31	
15	0	0	0	0	505	513	511	510	31	31	
0	0	0	0	0	508	513	512	510	31	31	
1	0	0	0	0	502	511	512	510	31	31	
2	0	0	0	0	503	513	512	512	31	31	
3	0	0	0	0	504	511	512	512	31	31	
4	0	0	0	0	504	511	513	509	31	31	
5	0	0	0	0	502	510	512	511	31	31	
6	0	0	0	0	502	511	512	510	31	31	
7	0	0	0	0	500	508	513	507	31	32	
8	0	0	0	0	498	509	510	508	31	32	
9	0	0	0	0	500	507	511	512	31	32	
10	0	0	0	0	504	512	512	508	31	31	
11	0	0	0	0	506	518	512	510	31	31	
12	0	0	0	0	505	518	510	513	31	31	
13	0	0	0	0	501	519	510	512	31	31	
14	0	0	0	0	503	519	511	508	31	31	
15	0	0	0	0	504	516	509	510	31	31	
0	0	0	0	0	503	516	510	511	31	31	
1	0	0	0	0	508	513	510	508	31	31	
2	0	0	0	0	505	513	512	511	31	31	
3	0	0	0	0	505	512	513	510	31	31	
4	0	0	0	0	505	509	512	508	31	31	
5	0	0	0	0	505	507	513	510	31	31	
6	0	0	0	0	503	509	513	510	31	31	
7	0	0	0	0	502	512	512	510	31	32	
8	0	0	0	0	503	515	511	513	31	32	
9	0	0	0	0	503	515	511	511	31	32	
10	0	0	0	0	504	512	512	510	31	31	
11	0	0	0	0	504	512	513	507	31	31	
12	0	0	0	0	504	511	514	507	31	31	
13	0	0	0	0	503	505	510	511	31	31	
14	0	0	0	0	502	504	511	510	31	32	
15	0	0	0	0	504	511	511	510	31	31	
0	0	0	0	0	507	515	511	509	31	31	
1	0	0	0	0	507	515	513	510	31	31	
2	0	0	0	0	503	511	510	512	31	32	
3	0	0	0	0	501	513	510	511	31	31	
4	0	0	0	0	500	505	512	510	31	31	
5	0	0	0	0	502	509	511	504	31	32	
6	0	0	0	0	505	518	512	508	31	31	
7	0	0	0	0	506	525	513	508	31	32	
8	0	0	0	0	505	520	512	510	31	31	
9	0	0	0	0	506	519	515	510	31	31	
10	0	0	0	0	505	514	512	509	31	31	
11	0	0	0	0	503	514	514	511	31	31	
12	0	0	0	0	502	510	510	511	31	32	
13	0	0	0	0	505	509	511	512	31	31	
14	0	0	0	0	503	509	511	511	31	31	
15	0	0	0	0	504	507	512	512	31	31	
0	0	0	0	0	505	507	509	512	31	31	
1	0	0	0	0	507	508	511	510	31	31	
2	0	0	0	0	504	511	510	511	31	31	
3	0	0	0	0	502	510	509	510	31	31	
4	0	0	0	0	503	510	512	511	31	31	
5	0	0	0	0	505	512	509	508	31	32	
6	0	0	0	0	503	519	511	508	31	31	
7	0	0	0	0	502	515	511	508	31	31	
8	0	0	0	0	503	518	513	508	31	31	
9	0	0	0	0	501	516	512	510	31	31	
10	0	0	0	0	501	512	512	509	31	31	
11	0	0	0	0	501	510	511	513	31	32	
12	0	0	0	0	502	512	515	509	31	31	
13	0	0	0	0	504	517	512	512	31	32	
14	0	0	0	0	507	520	511	511	31	31	
15	0	0	0	0	504	514	513	512	31	31	
0	0	0	0	0	503	507	514	510	31	31	
1	0	0	0	0	503	504	511	509	31	31	
2	0	0	0	0	500	502	510	513	31	31	
3	0	0	0	0	500	506	511	511	31	31	
4	0	0	0	0	502	507	513	511	31	31	
5	0	0	0	0	502	511	512	505	31	32	
6	0	0	0	0	507	515	514	507	31	31	
7	0	0	0	0	505	518	513	508	31	31	
8	0	0	0	0	504	518	511	510	31	32	
9	0	0	0	0	504	516	510	509	31	32	
10	0	0	0	0	504	514	510	511	31	32	
11	0	0	0	0	504	512	510	511	31	31	
12	0	0	0	0	504	515	510	512	31	31	
13	0	0	0	0	505	514	510	511	31	31	
14	0	0	0	0	506	513	512	507	31	31	
15	0	0	0	0	503	513	511	509	31	31	
0	0	0	0	0	500	515	512	510	31	31	
1	0	0	0	0	497	511	512	512	31	31	
2	0	0	0	0	500	513	511	508	31	31	
3	0	0	0	0	500	512	513	509	31	31	
4	0	0	0	0	507	512	515	510	31	31	
5	0	0	0	0	506	516	513	512	31	31	
6	0	0	0	0	505	517	512	509	31	32	
7	0	0	0	0	504	513	513	512	31	31	
8	0	0	0	0	505	510	512	509	31	31	
9	0	0	0	0	507	508	511	508	31	31	
10	0	0	0	0	505	508	512	509	31	31	
11	0	0	0	0	503	511	511	511	31	31	
12	0	0	0	0	505	515	511	509	31	31	
13	0	0	0	0	504	519	512	511	31	32	
14	0	0	0	0	503	517	511	512	31	31	
15	0	0	0	0	503	514	512	511	31	32	
0	0	0	0	0	503	511	511	511	31	32	
1	0	0	0	0	504	508	511	510	31	31	
2	0	0	0	0	502	506	512	508	31	31	
3	0	0	0	0	502	508	512	510	31	31	
4	0	0	0	0	504	511	511	510	31	31	
5	0	0	0	0	502	513	510	508	31	31	
6	0	0	0	0	506	514	512	509	31	31	
7	0	0	0	0	505	513	509	509	31	31	
8	0	0	0	0	506	517	510	510	31	31	
9	0	0	0	0	506	517	512	511	31	31	
10	0	0	0	0	505	519	512	508	31	31	
11	0	0	0	0	503	516	511	507	31	31	
12	0	0	0	0	503	512	512	511	31	32	
13	0	0	0	0	502	510	510	511	31	32	
14	0	0	0	0	502	510	512	509	31	32	
15	0	0	0	0	499	508	511	512	31	31	
0	0	0	0	0	502	507	512	512	31	32	
1	0	0	0	0	504	501	511	511	31	31	
2	0	0	0	0	505	505	510	508	31	31	
3	0	0	0	0	504	511	511	508	31	31	
4	0	0	0	0	503	509	514	512	31	31	
5	0	0	0	0	502	509	513	515	31	31	
6	0	0	0	0	503	512	512	509	31	31	
7	0	0	0	0	504	515	511	511	31	31	
8	0	0	0	0	503	515	513	507	31	31	
9	0	0	0	0	502	519	514	511	31	31	
10	0	0	0	0	501	522	512	506	31	31	
11	0	0	0	0	504	517	511	508	31	32	
12	0	0	0	0	501	514	510	512	31	32	
13	0	0	0	0	505	510	512	510	31	32	
14	0	0	0	0	507	508	511	510	31	31	
15	0	0	0	0	508	505	508	510	31	31	
0	0	0	0	0	510	510	510	512	31	31	
1	0	0	0	0	508	510	509	512	31	31	
2	0	0	0	0	507	512	511	512	31	31	
3	0	0	0	0	503	513	512	508	31	31	
4	0	0	0	0	506	513	512	508	31	31	
5	0	0	0	0	503	515	513	507	31	31	
6	0	0	0	0	500	513	513	507	31	31	
7	0	0	0	0	499	515	513	510	31	31	
8	0	0	0	0	499	516	514	511	31	32	
9	0	0	0	0	500	517	512	513	31	32	
10	0	0	0	0	502	516	510	512	31	31	
11	0	0	0	0	500	512	511	511	31	31	
12	0	0	0	0	503	507	511	504	31	31	
13	0	0	0	0	505	506	515	506	31	31	
14	0	0	0	0	504	513	516	507	31	31	
15	0	0	0	0	505	511	513	510	31	32	
0	0	0	0	0	502	510	511	513	31	31	
1	0	0	0	0	499	512	510	511	31	31	
2	0	0	0	0	500	517	512	513	31	31	
3	0	0	0	0	502	516	512	512	31	31	
4	0	0	0	0	500	518	509	510	31	31	
5	0	0	0	0	497	515	511	510	31	31	
6	0	0	0	0	493	516	508	510	31	31	
7	0	0	0	0	492	509	511	511	31	32	
8	0	0	0	0	489	503	513	509	31	32	
9	0	0	0	0	480	500	514	508	31	31	
10	0	0	0	0	462	499	511	512	31	31	
11	0	0	0	0	449	502	511	512	31	31	
12	0	0	0	0	429	505	512	511	31	31	
13	0	0	0	0	399	510	512	511	31	31	
14	0	0	0	0	397	515	511	512	31	31	
15	0	0	0	0	397	519	509	510	31	31	
0	0	0	0	0	398	519	510	510	31	31	
1	0	0	0	0	398	524	513	510	31	31	
2	0	0	0	0	406	524	512	511	31	31	
3	0	0	0	0	423	527	514	510	31	32	
4	0	0	0	0	422	525	513	505	31	32	
5	0	0	0	0	432	526	513	505	31	32	
6	0	0	0	0	441	525	512	510	31	31	
7	0	0	0	0	448	524	511	516	31	31	
8	0	0	0	0	462	518	510	512	31	31	
9	0	0	0	0	478	519	512	511	31	31	
10	0	0	0	0	489	514	513	508	31	31	
11	0	0	0	0	501	512	509	511	31	31	
12	0	0	0	0	512	509	511	511	31	31	
13	0	0	0	0	522	511	513	508	31	31	
14	0	0	0	0	528	509	513	508	31	31	
15	0	0	0	0	536	507	512	510	31	31	
0	0	0	0	0	541	507	510	509	31	31	
1	0	0	0	0	547	508	508	511	31	31	
2	0	0	0	0	551	503	512	509	31	31	
3	0	0	0	0	550	505	513	508	31	32	
4	0	0	0	0	541	508	513	510	31	31	
5	0	0	0	0	533	508	512	510	31	31	
6	0	0	0	0	530	511	510	511	31	31	
7	0	0	0	0	527	510	511	509	31	31	
8	0	0	0	0	525	508	512	511	31	31	
9	0	0	0	0	528	511	510	513	31	31	
10	0	0	0	0	529	516	509	515	31	31	
11	0	0	0	0	529	515	511	512	31	32	
12	0	0	0	0	527	520	513	511	31	31	
13	0	0	0	0	527	518	512	508	31	31	
14	0	0	0	0	526	513	513	508	31	32	
15	0	0	0	0	522	508	512	510	31	31	
0	0	0	0	0	526	506	512	511	31	31	
1	0	0	0	0	524	506	513	511	31	31	
2	0	0	0	0	519	506	512	508	31	31	
3	0	0	0	0	517	508	511	510	31	31	
4	0	0	0	0	516	509	512	512	31	32	
5	0	0	0	0	514	508	509	513	31	32	
6	0	0	0	0	516	508	510	515	31	32	
7	0	0	0	0	519	513	511	511	31	32	
8	0	0	0	0	518	509	513	506	31	31	
9	0	0	0	0	512	511	514	507	31	32	
10	0	0	0	0	512	517	511	510	31	32	
11	0	0	0	0	511	518	513	510	31	32	
12	0	0	0	0	509	518	513	508	31	31	
13	0	0	0	0	508	520	511	507	31	31	
14	0	0	0	0	497	520	508	511	31	31	
15	0	0	0	0	492	515	511	512	31	31	
0	0	0	0	0	492	512	509	515	31	31	
1	0	0	0	0	489	508	512	511	31	31	
2	0	0	0	0	486	508	513	504	31	31	
3	0	0	0	0	489	510	512	511	31	32	
4	0	0	0	0	492	510	514	513	31	31	
5	0	0	0	0	493	510	512	509	31	31	
6	0	0	0	0	492	510	512	504	31	31	
7	0	0	0	0	490	511	510	505	31	32	
8	0	0	0	0	493	513	510	508	31	32	
9	0	0	0	0	494	513	514	507	31	31	
10	0	0	0	0	504	513	511	509	31	31	
11	0	0	0	0	507	515	509	511	31	31	
12	0	0	0	0	514	518	508	512	31	31	
13	0	0	0	0	514	519	510	511	31	31	
14	0	0	0	0	516	516	510	512	31	31	
15	0	0	0	0	516	511	511	515	31	31	
0	0	0	0	0	512	508	513	513	31	31	
1	0	0	0	0	507	507	512	510	31	31	
2	0	0	0	0	504	508	512	510	31	31	
3	0	0	0	0	504	511	512	508	31	31	
4	0	0	0	0	508	512	511	510	31	31	
5	0	0	0	0	510	509	511	513	31	32	
6	0	0	0	0	513	511	511	511	31	32	
7	0	0	0	0	520	521	511	509	31	32	
8	0	0	0	0	524	517	513	512	31	31	
9	0	0	0	0	523	512	512	511	31	32	
10	0	0	0	0	510	508	511	512	31	32	
11	0	0	0	0	494	509	512	505	31	32	
12	0	0	0	0	481	504	515	506	31	31	
13	0	0	0	0	478	502	513	510	31	32	
14	0	0	0	0	477	506	512	512	31	31	
15	0	0	0	0	472	512	512	509	31	31	
0	0	0	0	0	474	517	512	510	31	31	
1	0	0	0	0	480	519	515	508	31	31	
2	0	0	0	0	489	518	511	512	31	32	
3	0	0	0	0	496	516	510	515	31	31	
4	0	0	0	0	507	514	506	512	31	32	
5	0	0	0	0	512	518	506	510	31	31	
6	0	0	0	0	514	525	510	511	31	31	
7	0	0	0	0	514	531	512	513	31	31	
8	0	0	0	0	519	523	514	512	31	31	
9	0	0	0	0	523	504	519	507	31	31	
10	0	0	0	0	521	495	513	510	31	31	
11	0	0	0	0	522	488	509	504	31	31	
12	0	0	0	0	522	496	512	497	31	31	
13	0	0	0	0	523	503	512	507	31	31	
14	0	0	0	0	522	504	513	510	31	31	
15	0	0	0	0	518	516	512	509	31	31	
0	0	0	0	0	515	519	514	510	31	31	
1	0	0	0	0	515	515	512	515	31	32	
2	0	0	0	0	515	511	508	515	31	32	
3	0	0	0	0	510	507	508	515	31	32	
4	0	0	0	0	512	511	508	514	31	32	
5	0	0	0	0	511	512	510	510	31	32	
6	0	0	0	0	514	517	509	510	31	31	
7	0	0	0	0	517	515	513	508	31	31	
8	0	0	0	0	518	516	514	509	31	31	
9	0	0	0	0	519	524	513	507	31	31	
10	0	0	0	0	518	523	511	507	31	31	
11	0	0	0	0	516	528	512	508	31	31	
12	0	0	0	0	516	531	512	513	31	31	
13	0	0	0	0	515	518	511	516	31	31	
14	0	0	0	0	512	508	507	519	31	32	
15	0	0	0	0	507	509	505	516	31	32	
0	0	0	0	0	506	507	511	508	31	32	
1	0	0	0	0	504	497	519	505	31	32	
2	0	0	0	0	503	492	519	510	31	31	
3	0	0	0	0	504	496	523	499	31	32	
4	0	0	0	0	502	500	513	505	31	31	
5	0	0	0	0	504	508	507	510	31	31	
6	0	0	0	0	510	512	508	511	31	32	
7	0	0	0	0	514	519	511	509	31	31	
8	0	0	0	0	514	523	511	507	31	31	
9	0	0	0	0	513	530	510	509	31	32	
10	0	0	0	0	513	527	510	510	31	31	
11	0	0	0	0	512	523	512	511	31	31	
12	0	0	0	0	510	522	511	511	31	31	
13	0	0	0	0	511	512	512	513	31	31	
14	0	0	0	0	511	500	513	513	31	31	
15	0	0	0	0	511	494	511	509	31	32	
0	0	0	0	0	511	499	510	505	31	31	
1	0	0	0	0	510	503	512	504	31	32	
2	0	0	0	0	515	510	510	511	31	31	
3	0	0	0	0	517	513	510	511	31	31	
4	0	0	0	0	515	516	509	511	31	31	
5	0	0	0	0	514	516	511	514	31	31	
6	0	0	0	0	513	515	510	512	31	31	
7	0	0	0	0	509	516	513	509	31	31	
8	0	0	0	0	506	518	511	508	31	31	
9	0	0	0	0	505	513	512	510	31	32	
10	0	0	0	0	503	514	509	511	31	32	
11	0	0	0	0	511	513	510	511	31	31	
12	0	0	0	0	515	518	510	507	31	31	
13	0	0	0	0	516	518	513	510	31	31	
14	0	0	0	0	515	517	512	515	31	31	
15	0	0	0	0	513	521	511	512	31	31	
0	0	0	0	0	512	526	513	511	31	31	
1	0	0	0	0	513	528	515	508	31	31	
2	0	0	0	0	511	513	515	507	31	32	
3	0	0	0	0	513	493	513	507	31	32	
4	0	0	0	0	513	480	511	510	31	32	
5	0	0	0	0	512	486	511	512	31	32	
6	0	0	0	0	511	495	510	513	31	32	
7	0	0	0	0	510	506	513	510	31	32	
8	0	0	0	0	509	514	510	511	31	32	
9	0	0	0	0	508	520	512	514	31	31	
10	0	0	0	0	507	521	514	513	31	31	
11	0	0	0	0	503	522	512	511	31	31	
12	0	0	0	0	503	516	510	515	31	31	
13	0	0	0	0	501	517	511	515	31	31	
14	0	0	0	0	505	517	511	508	31	31	
15	0	0	0	0	507	517	508	510	31	31	
0	0	0	0	0	509	513	508	507	31	31	
1	0	0	0	0	510	513	512	511	31	31	
2	0	0	0	0	511	509	519	499	31	31	
3	0	0	0	0	514	510	518	507	31	31	
4	0	0	0	0	511	515	513	505	31	31	
5	0	0	0	0	505	520	512	508	31	31	
6	0	0	0	0	497	522	508	511	31	31	
7	0	0	0	0	493	521	511	513	31	31	
8	0	0	0	0	497	511	513	513	31	32	
9	0	0	0	0	502	501	512	511	31	32	
10	0	0	0	0	503	492	510	511	31	31	
11	0	0	0	0	508	496	511	511	31	32	
12	0	0	0	0	512	508	512	511	31	31	
13	0	0	0	0	513	512	512	510	31	31	
14	0	0	0	0	510	516	514	510	31	31	
15	0	0	0	0	509	519	514	511	31	31	
0	0	0	0	0	508	521	515	512	31	31	
1	0	0	0	0	501	521	510	511	31	31	
2	0	0	0	0	502	521	508	507	31	31	
3	0	0	0	0	501	518	510	509	31	31	
4	0	0	0	0	503	513	510	509	31	31	
5	0	0	0	0	508	518	510	512	31	32	
6	0	0	0	0	509	515	506	512	31	32	
7	0	0	0	0	503	511	508	514	31	32	
8	0	0	0	0	499	510	515	507	31	32	
9	0	0	0	0	503	501	512	507	31	31	
10	0	0	0	0	507	504	514	509	31	31	
11	0	0	0	0	509	509	510	510	31	31	
12	0	0	0	0	510	507	511	508	31	32	
13	0	0	0	0	510	503	512	511	31	32	
14	0	0	0	0	510	504	512	512	31	32	
15	0	0	0	0	506	506	513	515	31	31	
0	0	0	0	0	503	514	512	514	31	31	
1	0	0	0	0	499	519	510	505	31	31	
2	0	0	0	0	501	521	508	504	31	31	
3	0	0	0	0	503	519	508	508	31	31	
4	0	0	0	0	500	517	513	511	31	32	
5	0	0	0	0	500	514	517	512	31	32	
6	0	0	0	0	503	512	514	514	31	32	
7	0	0	0	0	507	514	510	512	31	32	
8	0	0	0	0	506	513	509	513	31	32	
9	0	0	0	0	504	513	514	510	31	31	
10	0	0	0	0	500	519	512	509	31	31	
11	0	0	0	0	499	518	513	509	31	31	
12	0	0	0	0	502	522	512	513	31	31	
13	0	0	0	0	503	518	511	506	31	32	
14	0	0	0	0	505	514	513	511	31	31	
15	0	0	0	0	505	508	512	509	31	31	
0	0	0	0	0	505	504	512	509	31	31	
1	0	0	0	0	506	504	512	513	31	31	
2	0	0	0	0	506	506	510	513	31	31	
3	0	0	0	0	504	506	511	510	31	31	
4	0	0	0	0	505	513	511	505	31	31	
5	0	0	0	0	504	511	513	504	31	31	
6	0	0	0	0	503	509	513	503	31	31	
7	0	0	0	0	502	505	510	512	31	32	
8	0	0	0	0	502	512	509	515	31	31	
9	0	0	0	0	501	519	510	515	31	32	
10	0	0	0	0	503	526	514	510	31	32	
11	0	0	0	0	500	534	513	507	31	32	
12	0	0	0	0	501	519	512	515	31	32	
13	0	0	0	0	504	501	509	513	31	32	
14	0	0	0	0	505	493	508	508	31	32	
15	0	0	0	0	506	497	509	510	31	32	
0	0	0	0	0	505	506	515	512	31	31	
1	0	0	0	0	506	511	512	508	31	32	
2	0	0	0	0	507	511	511	511	31	32	
3	0	0	0	0	503	511	507	511	31	32	
4	0	0	0	0	502	511	512	510	31	31	
5	0	0	0	0	503	508	514	509	31	31	
6	0	0	0	0	502	508	512	510	31	31	
7	0	0	0	0	506	507	509	508	31	31	
8	0	0	0	0	507	512	511	508	31	31	
9	0	0	0	0	509	511	510	509	31	31	
10	0	0	0	0	505	514	509	506	31	31	
11	0	0	0	0	500	516	513	510	31	31	
12	0	0	0	0	497	515	513	509	31	31	
13	0	0	0	0	499	520	512	511	31	31	
14	0	0	0	0	502	525	514	511	31	31	
15	0	0	0	0	504	527	511	512	31	31	
0	0	0	0	0	504	528	508	512	31	31	
1	0	0	0	0	503	518	507	512	31	31	
2	0	0	0	0	504	502	510	514	31	31	
3	0	0	0	0	505	491	515	514	31	31	
4	0	0	0	0	502	492	518	510	31	31	
5	0	0	0	0	504	497	514	510	31	31	
6	0	0	0	0	508	501	515	504	31	32	
7	0	0	0	0	506	506	512	508	31	32	
8	0	0	0	0	507	512	511	509	31	32	
9	0	0	0	0	507	512	512	515	31	32	
10	0	0	0	0	504	516	513	510	31	31	
11	0	0	0	0	505	518	514	515	31	31	
12	0	0	0	0	504	520	513	512	31	32	
13	0	0	0	0	503	522	505	510	31	31	
14	0	0	0	0	504	519	510	504	31	31	
15	0	0	0	0	500	519	510	511	31	31	
0	0	0	0	0	502	517	508	519	31	31	
1	0	0	0	0	502	516	511	501	31	31	
2	0	0	0	0	500	515	514	495	31	31	
3	0	0	0	0	502	507	514	504	31	31	
4	0	0	0	0	504	508	512	508	31	31	
5	0	0	0	0	504	513	512	510	31	31	
6	0	0	0	0	505	521	514	511	31	31	
7	0	0	0	0	504	518	510	514	31	32	
8	0	0	0	0	501	519	510	513	31	32	
9	0	0	0	0	497	518	512	510	31	31	
10	0	0	0	0	500	520	512	510	31	31	
11	0	0	0	0	500	529	511	508	31	31	
12	0	0	0	0	503	525	512	512	31	32	
13	0	0	0	0	504	503	510	515	31	32	
14	0	0	0	0	508	479	512	513	31	32	
15	0	0	0	0	508	474	511	513	31	32	
0	0	0	0	0	510	484	513	509	31	31	
1	0	0	0	0	506	501	517	510	31	31	
2	0	0	0	0	504	512	512	509	31	31	
3	0	0	0	0	502	517	513	508	31	31	
4	0	0	0	0	503	520	508	509	31	31	
5	0	0	0	0	505	529	511	510	31	31	
6	0	0	0	0	507	529	510	510	31	31	
7	0	0	0	0	503	529	512	511	31	32	
8	0	0	0	0	496	518	512	510	31	31	
9	0	0	0	0	494	507	506	512	31	31	
10	0	0	0	0	497	495	509	511	31	31	
11	0	0	0	0	503	499	518	511	31	31	
12	0	0	0	0	504	508	517	507	31	31	
13	0	0	0	0	507	515	512	511	31	31	
14	0	0	0	0	510	518	510	505	31	31	
15	0	0	0	0	507	515	510	511	31	32	
0	0	0	0	0	507	513	511	518	31	32	
1	0	0	0	0	507	513	510	519	31	32	
2	0	0	0	0	508	516	511	498	31	32	
3	0	0	0	0	508	521	515	501	31	31	
4	0	0	0	0	505	521	513	510	31	31	
5	0	0	0	0	508	517	513	514	31	31	
6	0	0	0	0	503	513	512	510	31	31	
7	0	0	0	0	499	506	512	511	31	31	
8	0	0	0	0	500	512	515	508	31	31	
9	0	0	0	0	502	510	513	509	31	31	
10	0	0	0	0	505	509	511	518	31	31	
11	0	0	0	0	504	504	512	514	31	31	
12	0	0	0	0	506	506	513	506	31	32	
13	0	0	0	0	505	512	512	502	31	31	
14	0	0	0	0	503	529	509	501	31	31	
15	0	0	0	0	503	529	510	509	31	31	
0	0	0	0	0	503	516	512	513	31	31	
1	0	0	0	0	501	508	511	512	31	32	
2	0	0	0	0	502	494	510	512	31	31	
3	0	0	0	0	502	488	510	515	31	31	
4	0	0	0	0	503	492	510	512	31	31	
5	0	0	0	0	502	503	509	514	31	31	
6	0	0	0	0	503	512	509	508	31	32	
7	0	0	0	0	503	517	515	508	31	31	
8	0	0	0	0	502	518	514	508	31	32	
9	0	0	0	0	502	520	513	510	31	32	
10	0	0	0	0	500	518	512	511	31	31	
11	0	0	0	0	499	523	509	510	31	31	
12	0	0	0	0	499	522	509	510	31	31	
13	0	0	0	0	502	520	510	515	31	31	
14	0	0	0	0	504	516	510	514	31	31	
15	0	0	0	0	506	509	513	504	31	32	
0	0	0	0	0	504	501	508	507	31	31	
1	0	0	0	0	501	499	510	512	31	32	
2	0	0	0	0	504	506	510	508	31	31	
3	0	0	0	0	503	515	514	504	31	31	
4	0	0	0	0	504	518	516	512	31	31	
5	0	0	0	0	504	523	512	514	31	31	
6	0	0	0	0	507	530	513	514	31	31	
7	0	0	0	0	506	519	515	502	31	31	
8	0	0	0	0	507	512	515	512	31	31	
9	0	0	0	0	507	501	512	514	31	32	
10	0	0	0	0	506	497	513	508	31	31	
11	0	0	0	0	506	501	512	502	31	32	
12	0	0	0	0	503	502	509	509	31	32	
13	0	0	0	0	501	503	509	515	31	31	
14	0	0	0	0	503	507	511	513	31	31	
15	0	0	0	0	505	513	512	508	31	31	
0	0	0	0	0	502	518	511	508	31	31	
1	0	0	0	0	502	522	513	504	31	31	
2	0	0	0	0	499	525	513	508	31	31	
3	0	0	0	0	497	523	509	512	31	32	
4	0	0	0	0	500	527	511	514	31	32	
5	0	0	0	0	504	522	508	512	31	31	
6	0	0	0	0	504	515	513	511	31	31	
7	0	0	0	0	508	505	513	511	31	31	
8	0	0	0	0	504	498	513	511	31	32	
9	0	0	0	0	503	492	510	515	31	32	
10	0	0	0	0	501	498	509	515	31	31	
11	0	0	0	0	503	511	513	509	31	31	
12	0	0	0	0	505	523	513	507	31	31	
13	0	0	0	0	507	520	510	508	31	31	
14	0	0	0	0	504	519	511	507	31	31	
15	0	0	0	0	502	520	511	510	31	31	
0	0	0	0	0	503	528	510	511	31	31	
1	0	0	0	0	504	521	510	510	31	31	
2	0	0	0	0	505	510	510	510	31	31	
3	0	0	0	0	505	500	512	509	31	32	
4	0	0	0	0	506	496	512	508	31	31	
5	0	0	0	0	504	501	512	510	31	32	
6	0	0	0	0	505	511	511	511	31	31	
7	0	0	0	0	502	514	513	508	31	31	
8	0	0	0	0	501	514	510	508	31	31	
9	0	0	0	0	498	522	510	512	31	32	
10	0	0	0	0	497	529	507	510	31	32	
11	0	0	0	0	498	528	512	512	31	32	
12	0	0	0	0	502	524	516	512	31	31	
13	0	0	0	0	502	514	512	508	31	31	
14	0	0	0	0	503	499	512	509	31	31	
15	0	0	0	0	503	486	511	509	31	32	
0	0	0	0	0	504	488	514	509	31	31	
1	0	0	0	0	505	496	514	510	31	31	
2	0	0	0	0	507	500	511	516	31	31	
3	0	0	0	0	506	510	511	516	31	31	
4	0	0	0	0	507	516	510	517	31	31	
5	0	0	0	0	504	515	515	500	31	31	
6	0	0	0	0	503	515	508	508	31	32	
7	0	0	0	0	503	514	511	511	31	32	
8	0	0	0	0	500	516	508	509	31	31	
9	0	0	0	0	503	519	509	506	31	31	
10	0	0	0	0	505	521	513	513	31	31	
11	0	0	0	0	507	521	515	508	31	31	
12	0	0	0	0	505	519	515	505	31	31	
13	0	0	0	0	503	517	515	511	31	31	
14	0	0	0	0	502	516	514	515	31	31	
15	0	0	0	0	503	515	511	515	31	31	
0	0	0	0	0	503	515	513	508	31	32	
1	0	0	0	0	503	512	510	507	31	31	
2	0	0	0	0	504	515	508	508	31	31	
3	0	0	0	0	505	513	510	509	31	32	
4	0	0	0	0	505	511	512	511	31	31	
5	0	0	0	0	504	511	511	512	31	31	
6	0	0	0	0	504	509	512	514	31	32	
7	0	0	0	0	504	510	513	505	31	31	
8	0	0	0	0	502	507	510	511	31	31	
9	0	0	0	0	503	508	510	511	31	31	
10	0	0	0	0	502	510	511	510	31	31	
11	0	0	0	0	502	504	512	508	31	31	
12	0	0	0	0	506	505	515	515	31	32	
13	0	0	0	0	505	508	516	512	31	31	
14	0	0	0	0	505	513	515	510	31	32	
15	0	0	0	0	503	515	504	508	31	31	
0	0	0	0	0	502	518	507	507	31	31	
1	0	0	0	0	502	517	513	506	31	31	
2	0	0	0	0	501	515	515	511	31	31	
3	0	0	0	0	501	516	517	511	31	31	
4	0	0	0	0	499	513	514	510	31	31	
5	0	0	0	0	499	514	512	513	31	32	
6	0	0	0	0	500	514	513	508	31	32	
7	0	0	0	0	505	521	515	509	31	32	
8	0	0	0	0	505	525	515	511	31	32	
9	0	0	0	0	505	521	511	512	31	32	
10	0	0	0	0	505	510	508	512	31	32	
11	0	0	0	0	505	504	507	512	31	31	
12	0	0	0	0	504	502	510	512	31	31	
13	0	0	0	0	504	502	516	514	31	31	
14	0	0	0	0	506	507	518	501	31	31	
15	0	0	0	0	504	507	517	504	31	31	
0	0	0	0	0	505	508	518	510	31	31	
1	0	0	0	0	506	507	516	509	31	31	
2	0	0	0	0	507	510	518	508	31	32	
3	0	0	0	0	504	511	517	514	31	31	
4	0	0	0	0	503	507	514	513	31	32	
5	0	0	0	0	503	512	514	514	31	31	
6	0	0	0	0	502	511	516	512	31	31	
7	0	0	0	0	502	512	514	510	31	32	
8	0	0	0	0	502	514	510	508	31	32	
9	0	0	0	0	500	518	508	512	31	31	
10	0	0	0	0	503	518	508	508	31	31	
11	0	0	0	0	504	514	509	506	31	31	
12	0	0	0	0	505	517	515	503	31	31	
13	0	0	0	0	505	516	513	509	31	31	
14	0	0	0	0	503	515	510	510	31	31	
15	0	0	0	0	504	514	510	513	31	32	
0	0	0	0	0	504	515	511	513	31	31	
1	0	0	0	0	506	524	510	512	31	31	
2	0	0	0	0	505	522	508	510	31	32	
3	0	0	0	0	504	522	509	504	31	31	
4	0	0	0	0	504	516	511	512	31	32	
5	0	0	0	0	504	506	507	511	31	31	
6	0	0	0	0	504	500	508	507	31	31	
7	0	0	0	0	504	499	511	509	31	31	
8	0	0	0	0	504	499	509	512	31	31	
9	0	0	0	0	504	499	510	511	31	31	
10	0	0	0	0	499	500	508	513	31	31	
11	0	0	0	0	500	503	511	509	31	31	
12	0	0	0	0	499	510	512	508	31	31	
13	0	0	0	0	499	519	512	510	31	31	
14	0	0	0	0	502	524	512	511	31	32	
15	0	0	0	0	505	521	514	511	31	32	
0	0	0	0	0	503	516	508	509	31	32	
1	0	0	0	0	506	514	508	508	31	31	
2	0	0	0	0	508	512	505	509	31	31	
3	0	0	0	0	508	510	512	512	31	31	
4	0	0	0	0	505	509	514	512	31	31	
5	0	0	0	0	502	512	516	513	31	32	
6	0	0	0	0	502	513	513	509	31	32	
7	0	0	0	0	502	514	513	505	31	31	
8	0	0	0	0	502	513	510	513	31	31	
9	0	0	0	0	505	514	510	512	31	32	
10	0	0	0	0	504	514	513	508	31	32	
11	0	0	0	0	504	512	511	507	31	32	
12	0	0	0	0	503	513	510	513	31	31	
13	0	0	0	0	504	515	510	512	31	31	
14	0	0	0	0	504	519	510	509	31	31	
15	0	0	0	0	502	513	512	509	31	31	
0	0	0	0	0	502	514	512	508	31	32	
1	0	0	0	0	503	514	512	508	31	31	
2	0	0	0	0	504	513	510	512	31	31	
3	0	0	0	0	506	509	511	512	31	31	
4	0	0	0	0	503	510	511	512	31	31	
5	0	0	0	0	504	510	511	512	31	31	
6	0	0	0	0	505	511	513	507	31	31	
7	0	0	0	0	505	506	513	504	31	31	
8	0	0	0	0	502	506	510	508	31	31	
9	0	0	0	0	502	510	508	509	31	31	
10	0	0	0	0	504	514	511	511	31	31	
11	0	0	0	0	503	513	511	511	31	31	
12	0	0	0	0	501	515	511	514	31	31	
13	0	0	0	0	505	513	511	511	31	31	
14	0	0	0	0	504	511	511	512	31	31	
15	0	0	0	0	504	505	510	519	31	32	
0	0	0	0	0	507	501	507	520	31	32	
1	0	0	0	0	504	503	508	512	31	31	
2	0	0	0	0	502	508	509	494	31	31	
3	0	0	0	0	499	511	511	502	31	31	
4	0	0	0	0	500	511	512	508	31	31	
5	0	0	0	0	500	515	515	506	31	31	
6	0	0	0	0	499	517	516	507	31	31	
7	0	0	0	0	501	519	513	509	31	31	
8	0	0	0	0	504	519	511	514	31	31	
9	0	0	0	0	505	518	510	512	31	31	
10	0	0	0	0	503	519	510	509	31	32	
11	0	0	0	0	502	518	509	511	31	32	
12	0	0	0	0	502	519	511	511	31	31	
13	0	0	0	0	504	515	515	511	31	31	
14	0	0	0	0	503	516	512	513	31	31	
15	0	0	0	0	505	510	509	513	31	32	
0	0	0	0	0	504	507	513	513	31	31	
1	0	0	0	0	506	508	513	512	31	31	
2	0	0	0	0	506	513	514	508	31	32	
3	0	0	0	0	504	513	514	505	31	31	
4	0	0	0	0	504	513	511	508	31	31	
5	0	0	0	0	502	512	508	507	31	31	
6	0	0	0	0	504	512	512	505	31	31	
7	0	0	0	0	503	510	509	512	31	32	
8	0	0	0	0	502	510	510	516	31	32	
9	0	0	0	0	502	509	511	515	31	31	
10	0	0	0	0	503	510	511	504	31	31	
11	0	0	0	0	504	508	509	511	31	31	
12	0	0	0	0	502	511	512	511	31	31	
13	0	0	0	0	504	513	512	503	31	32	
14	0	0	0	0	504	516	512	505	31	31	
15	0	0	0	0	504	513	511	511	31	31	
0	0	0	0	0	502	513	511	515	31	31	
1	0	0	0	0	505	511	511	516	31	31	
2	0	0	0	0	504	514	515	509	31	31	
3	0	0	0	0	503	515	510	504	31	31	
4	0	0	0	0	507	514	511	508	31	31	
5	0	0	0	0	507	515	513	511	31	31	
6	0	0	0	0	503	517	511	510	31	32	
7	0	0	0	0	504	517	513	507	31	31	
8	0	0	0	0	501	514	512	507	31	31	
9	0	0	0	0	500	510	509	510	31	31	
10	0	0	0	0	500	508	509	510	31	32	
11	0	0	0	0	503	508	512	509	31	31	
12	0	0	0	0	502	507	511	507	31	31	
13	0	0	0	0	503	508	510	511	31	32	
14	0	0	0	0	503	506	511	515	31	31	
15	0	0	0	0	504	509	512	514	31	32	
0	0	0	0	0	503	512	513	512	31	31	
1	0	0	0	0	505	513	511	509	31	31	
2	0	0	0	0	503	515	511	511	31	31	
3	0	0	0	0	504	512	511	514	31	31	
4	0	0	0	0	506	510	512	513	31	31	
5	0	0	0	0	507	511	519	507	31	32	
6	0	0	0	0	503	511	519	507	31	31	
7	0	0	0	0	502	515	511	507	31	31	
8	0	0	0	0	502	512	507	510	31	31	
9	0	0	0	0	502	513	506	512	31	31	
10	0	0	0	0	502	512	511	507	31	31	
11	0	0	0	0	504	513	511	507	31	31	
12	0	0	0	0	505	514	512	510	31	31	
13	0	0	0	0	506	517	511	511	31	31	
14	0	0	0	0	503	517	515	511	31	32	
15	0	0	0	0	501	517	512	512	31	32	
0	0	0	0	0	502	516	511	511	31	32	
1	0	0	0	0	501	515	512	513	31	32	
2	0	0	0	0	503	515	511	511	31	31	
3	0	0	0	0	502	510	510	510	31	31	
4	0	0	0	0	507	508	512	508	31	31	
5	0	0	0	0	506	507	508	512	31	31	
6	0	0	0	0	507	502	509	509	31	31	
7	0	0	0	0	506	503	511	508	31	31	
8	0	0	0	0	505	507	513	513	31	31	
9	0	0	0	0	502	511	511	518	31	31	
10	0	0	0	0	503	512	512	517	31	31	
11	0	0	0	0	503	515	511	502	31	31	
12	0	0	0	0	502	517	510	505	31	31	
13	0	0	0	0	503	520	516	496	31	31	
14	0	0	0	0	504	520	513	509	31	32	
15	0	0	0	0	502	520	513	511	31	32	
0	0	0	0	0	500	518	508	510	31	31	
1	0	0	0	0	502	517	511	512	31	31	
2	0	0	0	0	503	512	510	510	31	31	
3	0	0	0	0	504	509	512	512	31	31	
4	0	0	0	0	504	504	510	511	31	31	
5	0	0	0	0	505	506	513	512	31	31	
6	0	0	0	0	501	507	509	512	31	31	
7	0	0	0	0	504	509	513	505	31	31	
8	0	0	0	0	503	510	514	511	31	31	
9	0	0	0	0	505	514	515	507	31	31	
10	0	0	0	0	506	519	512	511	31	32	
11	0	0	0	0	505	516	510	515	31	32	
12	0	0	0	0	507	515	510	513	31	32	
13	0	0	0	0	508	516	510	512	31	31	
14	0	0	0	0	505	508	510	512	31	31	
15	0	0	0	0	503	508	512	508	31	31	
0	0	0	0	0	504	507	515	511	31	31	
1	0	0	0	0	502	510	511	511	31	31	
2	0	0	0	0	501	512	512	508	31	31	
3	0	0	0	0	502	515	511	508	31	32	
4	0	0	0	0	502	517	513	509	31	31	
5	0	0	0	0	503	520	512	508	31	31	
6	0	0	0	0	504	519	515	508	31	31	
7	0	0	0	0	504	518	513	510	31	31	
8	0	0	0	0	503	511	511	513	31	31	
9	0	0	0	0	501	510	511	512	31	31	
10	0	0	0	0	501	506	511	513	31	31	
11	0	0	0	0	503	503	513	511	31	31	
12	0	0	0	0	504	509	510	511	31	31	
13	0	0	0	0	503	511	512	512	31	32	
14	0	0	0	0	504	514	510	512	31	31	
15	0	0	0	0	505	515	511	505	31	31	
0	0	0	0	0	504	514	513	505	31	31	
1	0	0	0	0	505	515	513	507	31	31	
2	0	0	0	0	508	516	511	510	31	32	
3	0	0	0	0	505	513	510	511	31	32	
4	0	0	0	0	504	511	511	515	31	31	
5	0	0	0	0	506	510	510	512	31	31	
6	0	0	0	0	504	512	512	512	31	31	
7	0	0	0	0	505	513	513	504	31	32	
8	0	0	0	0	500	512	513	512	31	32	
9	0	0	0	0	501	512	512	512	31	32	
10	0	0	0	0	502	514	511	510	31	31	
11	0	0	0	0	503	511	514	505	31	31	
12	0	0	0	0	502	510	514	511	31	32	
13	0	0	0	0	506	510	513	514	31	31	
14	0	0	0	0	506	509	512	512	31	31	
15	0	0	0	0	507	509	513	510	31	31	
0	0	0	0	0	505	508	508	507	31	31	
1	0	0	0	0	504	511	508	510	31	31	
2	0	0	0	0	504	512	511	510	31	31	
3	0	0	0	0	503	512	510	511	31	31	
4	0	0	0	0	502	516	509	512	31	32	
5	0	0	0	0	499	518	510	515	31	31	
6	0	0	0	0	498	514	510	509	31	32	
7	0	0	0	0	499	510	511	508	31	32	
8	0	0	0	0	503	509	513	507	31	31	
9	0	0	0	0	507	513	513	504	31	31	
10	0	0	0	0	505	515	512	510	31	31	
11	0	0	0	0	505	515	509	515	31	31	
12	0	0	0	0	504	514	511	511	31	31	
13	0	0	0	0	505	514	513	508	31	31	
14	0	0	0	0	504	517	516	505	31	31	
15	0	0	0	0	503	512	512	509	31	31	
0	0	0	0	0	504	513	512	510	31	32	
1	0	0	0	0	502	513	510	512	31	31	
2	0	0	0	0	504	510	512	512	31	31	
3	0	0	0	0	505	511	511	512	31	31	
4	0	0	0	0	502	513	512	512	31	31	
5	0	0	0	0	504	512	510	510	31	32	
6	0	0	0	0	504	512	508	512	31	31	
7	0	0	0	0	504	511	511	512	31	31	
8	0	0	0	0	502	511	518	509	31	31	
9	0	0	0	0	502	512	517	508	31	32	
10	0	0	0	0	503	513	511	510	31	31	
11	0	0	0	0	503	509	508	508	31	31	
12	0	0	0	0	503	511	505	512	31	31	
13	0	0	0	0	503	511	509	515	31	31	
14	0	0	0	0	503	514	510	512	31	31	
15	0	0	0	0	502	512	511	507	31	31	
0	0	0	0	0	503	518	516	503	31	31	
1	0	0	0	0	504	520	513	505	31	31	
2	0	0	0	0	504	513	511	508	31	31	
3	0	0	0	0	503	509	512	510	31	32	
4	0	0	0	0	502	507	511	509	31	32	
5	0	0	0	0	503	508	512	509	31	32	
6	0	0	0	0	503	513	511	512	31	32	
7	0	0	0	0	503	515	511	513	31	31	
8	0	0	0	0	504	515	512	511	31	32	
9	0	0	0	0	504	512	513	508	31	31	
10	0	0	0	0	505	510	512	510	31	31	
11	0	0	0	0	502	513	510	512	31	31	
12	0	0	0	0	501	515	510	512	31	31	
13	0	0	0	0	502	519	511	503	31	32	
14	0	0	0	0	500	519	511	511	31	32	
15	0	0	0	0	503	518	511	516	31	32	
0	0	0	0	0	503	515	512	515	31	31	
1	0	0	0	0	504	506	508	511	31	31	
2	0	0	0	0	505	500	512	504	31	31	
3	0	0	0	0	508	498	515	505	31	31	
4	0	0	0	0	508	502	514	506	31	31	
5	0	0	0	0	507	503	515	508	31	31	
6	0	0	0	0	504	504	512	515	31	31	
7	0	0	0	0	505	518	510	515	31	31	
8	0	0	0	0	504	519	509	513	31	31	
9	0	0	0	0	505	523	514	502	31	31	
10	0	0	0	0	505	525	510	505	31	32	
11	0	0	0	0	504	523	508	510	31	31	
12	0	0	0	0	506	516	508	512	31	31	
13	0	0	0	0	501	509	511	515	31	31	
14	0	0	0	0	502	507	514	512	31	31	
15	0	0	0	0	500	502	512	511	31	31	
0	0	0	0	0	499	508	511	510	31	31	
1	0	0	0	0	501	515	512	508	31	31	
2	0	0	0	0	504	519	511	513	31	31	
3	0	0	0	0	504	517	511	508	31	32	
4	0	0	0	0	504	515	511	511	31	32	
5	0	0	0	0	507	514	509	510	31	32	
6	0	0	0	0	504	512	511	511	31	32	
7	0	0	0	0	503	514	512	512	31	32	
8	0	0	0	0	499	519	515	512	31	32	
9	0	0	0	0	499	514	513	509	31	31	
10	0	0	0	0	501	510	510	508	31	31	
11	0	0	0	0	502	504	512	511	31	31	
12	0	0	0	0	500	507	510	511	31	32	
13	0	0	0	0	501	509	510	512	31	31	
14	0	0	0	0	502	511	513	510	31	31	
15	0	0	0	0	504	515	513	513	31	31	
0	0	0	0	0	507	517	512	511	31	31	
1	0	0	0	0	507	517	513	508	31	31	
2	0	0	0	0	507	518	512	506	31	31	
3	0	0	0	0	508	519	511	507	31	31	
4	0	0	0	0	504	514	511	507	31	31	
5	0	0	0	0	504	509	511	511	31	31	
6	0	0	0	0	505	504	511	512	31	31	
7	0	0	0	0	504	503	512	512	31	32	
8	0	0	0	0	504	498	510	512	31	31	
9	0	0	0	0	500	499	511	515	31	31	
10	0	0	0	0	505	504	510	505	31	31	
11	0	0	0	0	505	510	513	506	31	31	
12	0	0	0	0	504	513	510	508	31	31	
13	0	0	0	0	504	513	509	510	31	31	
14	0	0	0	0	503	511	511	509	31	32	
15	0	0	0	0	500	520	514	510	31	31	
0	0	0	0	0	495	526	515	509	31	31	
1	0	0	0	0	497	525	513	511	31	31	
2	0	0	0	0	501	521	511	511	31	31	
3	0	0	0	0	504	520	514	511	31	31	
4	0	0	0	0	505	517	511	508	31	31	
5	0	0	0	0	507	514	514	510	31	31	
6	0	0	0	0	506	513	511	506	31	31	
7	0	0	0	0	505	510	509	508	31	31	
8	0	0	0	0	507	509	512	511	31	31	
9	0	0	0	0	508	510	513	512	31	31	
10	0	0	0	0	507	506	510	511	31	32	
11	0	0	0	0	505	508	511	512	31	32	
12	0	0	0	0	504	505	511	511	31	32	
13	0	0	0	0	504	505	510	513	31	32	
14	0	0	0	0	505	511	512	510	31	32	
15	0	0	0	0	502	515	512	511	31	32	
0	0	0	0	0	504	514	511	508	31	31	
1	0	0	0	0	503	512	512	509	31	31	
2	0	0	0	0	503	510	513	507	31	31	
3	0	0	0	0	504	512	512	509	31	31	
4	0	0	0	0	503	512	510	510	31	32	
5	0	0	0	0	504	514	510	509	31	31	
6	0	0	0	0	502	513	510	512	31	31	
7	0	0	0	0	502	514	511	512	31	31	
8	0	0	0	0	504	514	512	508	31	31	
9	0	0	0	0	503	515	512	509	31	31	
10	0	0	0	0	502	513	512	510	31	31	
11	0	0	0	0	502	511	511	508	31	31	
12	0	0	0	0	505	513	509	510	31	31	
13	0	0	0	0	508	516	510	510	31	31	
14	0	0	0	0	506	518	508	511	31	31	
15	0	0	0	0	502	519	509	511	31	31	
0	0	0	0	0	501	515	512	511	31	31	
1	0	0	0	0	504	511	513	511	31	31	
2	0	0	0	0	507	508	512	511	31	31	
3	0	0	0	0	506	501	512	508	31	31	
4	0	0	0	0	507	499	513	510	31	31	
5	0	0	0	0	500	507	511	509	31	31	
6	0	0	0	0	496	508	511	509	31	31	
7	0	0	0	0	496	512	510	511	31	31	
8	0	0	0	0	496	512	512	510	31	31	
9	0	0	0	0	499	513	512	512	31	32	
10	0	0	0	0	507	514	511	514	31	32	
11	0	0	0	0	507	516	513	511	31	32	
12	0	0	0	0	511	517	513	509	31	32	
13	0	0	0	0	511	515	512	511	31	32	
14	0	0	0	0	511	513	509	509	31	31	
15	0	0	0	0	511	515	514	510	31	31	
0	0	0	0	0	511	514	510	510	31	31	
1	0	0	0	0	507	514	510	507	31	31	
2	0	0	0	0	505	512	510	509	31	31	
3	0	0	0	0	501	515	512	509	31	32	
4	0	0	0	0	500	516	512	511	31	32	
5	0	0	0	0	500	516	509	509	31	32	
6	0	0	0	0	505	513	511	510	31	31	
7	0	0	0	0	507	513	510	511	31	31	
8	0	0	0	0	513	510	512	509	31	31	
9	0	0	0	0	515	505	514	511	31	31	
10	0	0	0	0	515	508	515	512	31	32	
11	0	0	0	0	511	508	514	511	31	32	
12	0	0	0	0	501	510	513	511	31	32	
13	0	0	0	0	489	511	512	510	31	31	
14	0	0	0	0	487	512	513	510	31	31	
15	0	0	0	0	493	513	514	508	31	31	
0	0	0	0	0	498	514	512	512	31	31	
1	0	0	0	0	501	513	511	510	31	32	
2	0	0	0	0	493	513	510	509	31	32	
3	0	0	0	0	487	512	510	508	31	32	
4	0	0	0	0	488	513	510	509	31	31	
5	0	0	0	0	498	512	513	513	31	31	
6	0	0	0	0	505	513	510	511	31	31	
7	0	0	0	0	509	513	512	512	31	31	
8	0	0	0	0	518	516	512	511	31	32	
9	0	0	0	0	515	515	512	510	31	32	
10	0	0	0	0	507	514	511	511	31	32	
11	0	0	0	0	497	514	512	511	31	32	
12	0	0	0	0	498	513	511	508	31	32	
13	0	0	0	0	493	513	510	512	31	31	
14	0	0	0	0	492	512	512	514	31	32	
15	0	0	0	0	496	514	511	510	31	31	
0	0	0	0	0	504	515	511	507	31	31	
1	0	0	0	0	509	511	511	507	31	31	
2	0	0	0	0	510	512	509	509	31	32	
3	0	0	0	0	513	510	512	505	31	31	
4	0	0	0	0	516	511	514	508	31	30	
5	0	0	0	0	523	513	512	510	31	31	
6	0	0	0	0	525	511	511	510	31	32	
7	0	0	0	0	516	512	511	510	31	33	
8	0	0	0	0	498	512	512	511	31	32	
9	0	0	0	0	481	511	513	511	31	32	
10	0	0	0	0	472	511	514	509	31	32	
11	0	0	0	0	477	513	514	510	31	32	
12	0	0	0	0	488	513	509	511	31	32	
13	0	0	0	0	504	513	512	507	31	31	
14	0	0	0	0	516	512	511	510	31	31	
15	0	0	0	0	523	512	512	509	31	31	
0	0	0	0	0	523	511	512	510	31	31	
1	0	0	0	0	504	511	511	511	31	31	
2	0	0	0	0	493	512	511	512	31	31	
3	0	0	0	0	490	511	511	511	31	31	
4	0	0	0	0	489	512	508	512	31	31	
5	0	0	0	0	499	512	508	511	31	31	
6	0	0	0	0	504	513	511	511	31	31	
7	0	0	0	0	509	510	512	512	31	31	
8	0	0	0	0	517	512	511	512	31	31	
9	0	0	0	0	522	510	512	510	31	31	
10	0	0	0	0	527	512	512	510	31	31	
11	0	0	0	0	526	514	512	509	31	31	
12	0	0	0	0	521	512	511	507	31	31	
13	0	0	0	0	516	513	513	507	31	31	
14	0	0	0	0	503	512	512	511	31	30	
15	0	0	0	0	504	513	509	512	31	29	
0	0	0	0	0	494	512	509	513	31	31	
1	0	0	0	0	491	513	511	509	31	33	
2	0	0	0	0	497	515	510	509	31	34	
3	0	0	0	0	482	513	514	508	31	34	
4	0	0	0	0	466	511	513	508	31	34	
5	0	0	0	0	472	513	513	508	31	33	
6	0	0	0	0	486	512	512	511	31	32	
7	0	0	0	0	504	512	513	511	31	31	
8	0	0	0	0	507	514	512	510	31	31	
9	0	0	0	0	503	511	515	511	31	30	
10	0	0	0	0	503	511	509	513	31	30	
11	0	0	0	0	518	512	508	510	31	31	
12	0	0	0	0	520	513	510	510	31	32	
13	0	0	0	0	525	510	513	509	31	32	
14	0	0	0	0	529	511	514	507	31	32	
15	0	0	0	0	507	512	514	510	31	32	
0	0	0	0	0	490	514	513	510	31	32	
1	0	0	0	0	483	513	515	511	31	32	
2	0	0	0	0	480	514	512	512	31	32	
3	0	0	0	0	484	512	511	510	31	31	
4	0	0	0	0	500	512	511	508	31	31	
5	0	0	0	0	510	511	510	510	31	30	
6	0	0	0	0	523	513	511	509	31	30	
7	0	0	0	0	534	512	511	510	31	31	
8	0	0	0	0	534	515	511	508	31	31	
9	0	0	0	0	521	513	511	513	31	31	
10	0	0	0	0	498	512	508	512	31	30	
11	0	0	0	0	489	514	508	512	31	31	
12	0	0	0	0	490	515	510	508	31	33	
13	0	0	0	0	493	512	513	507	31	34	
14	0	0	0	0	499	511	513	509	31	34	
15	0	0	0	0	504	510	513	507	31	33	
0	0	0	0	0	502	508	514	511	31	32	
1	0	0	0	0	502	510	514	509	31	31	
2	0	0	0	0	503	512	512	510	31	31	
3	0	0	0	0	505	511	511	511	31	31	
4	0	0	0	0	506	513	513	511	31	31	
5	0	0	0	0	512	511	513	509	31	31	
6	0	0	0	0	517	512	513	511	31	31	
7	0	0	0	0	515	513	510	513	31	31	
8	0	0	0	0	513	513	508	511	31	31	
9	0	0	0	0	508	514	508	512	31	30	
10	0	0	0	0	511	515	510	511	31	30	
11	0	0	0	0	512	515	511	506	31	31	
12	0	0	0	0	514	518	508	506	31	30	
13	0	0	0	0	517	515	509	512	31	31	
14	0	0	0	0	515	520	514	505	31	32	
15	0	0	0	0	508	516	513	508	31	32	
0	0	0	0	0	497	510	510	509	31	33	
1	0	0	0	0	484	507	508	510	31	33	
2	0	0	0	0	482	504	509	513	31	32	
3	0	0	0	0	484	502	510	513	31	32	
4	0	0	0	0	492	505	512	512	31	32	
5	0	0	0	0	500	507	513	511	31	32	
6	0	0	0	0	500	510	512	511	31	32	
7	0	0	0	0	504	513	510	509	31	32	
8	0	0	0	0	505	513	508	512	31	31	
9	0	0	0	0	503	512	510	509	31	31	
10	0	0	0	0	503	515	510	508	31	31	
11	0	0	0	0	504	515	509	508	31	30	
12	0	0	0	0	513	514	508	508	31	29	
13	0	0	0	0	533	518	511	510	31	29	
14	0	0	0	0	540	517	513	510	31	31	
15	0	0	0	0	540	514	511	513	31	33	
0	0	0	0	0	513	516	513	507	31	33	
1	0	0	0	0	491	512	514	510	31	33	
2	0	0	0	0	476	510	513	511	31	33	
3	0	0	0	0	469	520	515	510	31	33	
4	0	0	0	0	466	515	513	511	31	32	
5	0	0	0	0	468	515	514	511	31	31	
6	0	0	0	0	482	512	511	513	31	30	
7	0	0	0	0	496	512	510	512	31	30	
8	0	0	0	0	508	511	509	511	31	31	
9	0	0	0	0	513	513	512	510	31	32	
10	0	0	0	0	510	511	513	508	31	32	
11	0	0	0	0	510	511	512	506	31	32	
12	0	0	0	0	511	510	512	508	31	32	
13	0	0	0	0	509	510	512	511	31	32	
14	0	0	0	0	511	509	513	509	31	31	
15	0	0	0	0	527	510	511	510	31	30	
0	0	0	0	0	542	510	512	510	31	30	
1	0	0	0	0	547	513	510	514	31	31	
2	0	0	0	0	538	514	509	513	31	31	
3	0	0	0	0	499	512	508	510	31	32	
4	0	0	0	0	462	510	511	510	31	33	
5	0	0	0	0	460	511	512	508	31	32	
6	0	0	0	0	470	511	512	509	31	32	
7	0	0	0	0	486	512	512	510	31	31	
8	0	0	0	0	499	513	510	512	31	31	
9	0	0	0	0	508	512	515	508	31	31	
10	0	0	0	0	516	509	514	511	31	30	
11	0	0	0	0	522	512	511	508	31	32	
12	0	0	0	0	511	512	510	508	31	33	
13	0	0	0	0	490	509	511	508	31	33	
14	0	0	0	0	484	511	515	509	31	33	
15	0	0	0	0	489	511	512	508	31	32	
0	0	0	0	0	495	514	512	509	31	32	
1	0	0	0	0	500	513	512	509	31	31	
2	0	0	0	0	498	514	513	513	31	31	
3	0	0	0	0	508	512	511	511	31	30	
4	0	0	0	0	520	510	508	514	31	30	
5	0	0	0	0	518	513	509	511	31	31	
6	0	0	0	0	521	514	511	511	31	32	
7	0	0	0	0	512	511	511	510	31	32	
8	0	0	0	0	493	516	512	511	31	32	
9	0	0	0	0	488	512	511	509	31	32	
10	0	0	0	0	493	505	511	512	31	31	
11	0	0	0	0	504	500	512	510	31	31	
12	0	0	0	0	509	501	510	513	31	31	
13	0	0	0	0	505	505	511	510	31	31	
14	0	0	0	0	508	512	510	511	31	31	
15	0	0	0	0	519	513	508	510	31	30	
0	0	0	0	0	528	519	510	508	31	29	
1	0	0	0	0	536	517	510	507	31	30	
2	0	0	0	0	527	515	511	509	31	32	
3	0	0	0	0	500	514	512	509	31	34	
4	0	0	0	0	475	515	514	511	31	33	
5	0	0	0	0	472	507	515	510	31	33	
6	0	0	0	0	483	515	515	510	31	32	
7	0	0	0	0	492	516	515	510	31	32	
8	0	0	0	0	498	514	514	510	31	32	
9	0	0	0	0	499	515	513	512	31	32	
10	0	0	0	0	504	511	515	511	31	32	
11	0	0	0	0	504	510	515	510	31	31	
12	0	0	0	0	499	512	513	510	31	31	
13	0	0	0	0	495	512	509	508	31	31	
14	0	0	0	0	500	512	509	509	31	31	
15	0	0	0	0	513	513	511	512	31	31	
0	0	0	0	0	518	514	509	511	31	31	
1	0	0	0	0	524	512	510	511	31	31	
2	0	0	0	0	514	514	510	511	31	32	
3	0	0	0	0	500	513	512	509	31	32	
4	0	0	0	0	492	513	515	511	31	32	
5	0	0	0	0	487	512	513	510	31	32	
6	0	0	0	0	490	511	513	510	31	31	
7	0	0	0	0	501	512	512	510	31	31	
8	0	0	0	0	505	509	511	511	31	31	
9	0	0	0	0	509	510	512	511	31	31	
10	0	0	0	0	515	514	512	508	31	31	
11	0	0	0	0	519	512	511	508	31	31	
12	0	0	0	0	521	512	511	510	31	31	
13	0	0	0	0	516	516	508	510	31	31	
14	0	0	0	0	507	515	508	510	31	31	
15	0	0	0	0	502	512	510	508	31	30	
0	0	0	0	0	505	512	511	508	31	31	
1	0	0	0	0	512	511	513	509	31	32	
2	0	0	0	0	515	510	512	509	31	32	
3	0	0	0	0	515	513	514	511	31	33	
4	0	0	0	0	511	513	515	510	31	32	
5	0	0	0	0	494	513	513	510	31	32	
6	0	0	0	0	482	512	511	510	31	32	
7	0	0	0	0	477	513	513	510	31	32	
8	0	0	0	0	482	511	512	511	31	32	
9	0	0	0	0	486	513	510	511	31	32	
10	0	0	0	0	493	514	513	509	31	32	
11	0	0	0	0	508	511	510	511	31	31	
12	0	0	0	0	529	509	508	512	31	31	
13	0	0	0	0	543	509	510	511	31	31	
14	0	0	0	0	546	510	513	506	31	30	
15	0	0	0	0	520	512	513	507	31	30	
0	0	0	0	0	492	514	512	509	31	31	
1	0	0	0	0	471	516	508	508	31	31	
2	0	0	0	0	474	517	510	511	31	32	
3	0	0	0	0	483	513	511	510	31	32	
4	0	0	0	0	486	512	511	512	31	32	
5	0	0	0	0	485	508	512	510	31	33	
6	0	0	0	0	487	512	512	509	31	32	
7	0	0	0	0	503	508	511	509	31	32	
8	0	0	0	0	515	511	511	509	31	32	
9	0	0	0	0	526	511	514	510	31	31	
10	0	0	0	0	520	513	513	510	31	31	
11	0	0	0	0	502	512	509	511	31	30	
12	0	0	0	0	497	513	510	510	31	31	
13	0	0	0	0	502	515	509	511	31	31	
14	0	0	0	0	508	513	512	513	31	32	
15	0	0	0	0	512	512	514	511	31	32	
0	0	0	0	0	518	515	514	510	31	32	
1	0	0	0	0	519	512	514	509	31	32	
2	0	0	0	0	517	512	511	508	31	32	
3	0	0	0	0	515	510	508	512	31	31	
4	0	0	0	0	512	512	510	511	31	31	
5	0	0	0	0	512	514	512	510	31	32	
6	0	0	0	0	516	518	512	507	31	31	
7	0	0	0	0	519	512	514	510	31	31	
8	0	0	0	0	513	511	511	510	31	31	
9	0	0	0	0	511	512	510	509	31	31	
10	0	0	0	0	511	511	512	511	31	31	
11	0	0	0	0	519	513	513	508	31	31	
12	0	0	0	0	510	512	511	508	31	31	
13	0	0	0	0	486	512	508	512	31	32	
14	0	0	0	0	465	513	510	512	31	32	
15	0	0	0	0	472	513	512	510	31	31	
0	0	0	0	0	481	513	510	511	31	32	
1	0	0	0	0	498	511	510	510	31	32	
2	0	0	0	0	506	512	513	511	31	32	
3	0	0	0	0	502	512	510	512	31	31	
4	0	0	0	0	496	510	509	508	31	31	
5	0	0	0	0	498	511	510	510	31	29	
6	0	0	0	0	508	514	508	513	31	27	
7	0	0	0	0	518	513	508	514	31	29	
8	0	0	0	0	527	513	510	511	31	32	
9	0	0	0	0	523	514	511	510	31	35	
10	0	0	0	0	503	512	517	510	31	36	
11	0	0	0	0	487	509	518	507	31	35	
12	0	0	0	0	480	510	521	505	31	34	
13	0	0	0	0	475	512	518	508	31	33	
14	0	0	0	0	480	508	515	510	31	31	
15	0	0	0	0	499	512	511	508	32	30	
0	0	0	0	0	522	511	515	510	31	29	
1	0	0	0	0	543	511	517	510	31	29	
2	0	0	0	0	541	513	513	510	31	30	
3	0	0	0	0	534	510	515	510	31	32	
4	0	0	0	0	508	512	513	508	31	32	
5	0	0	0	0	495	513	512	511	31	31	
6	0	0	0	0	489	514	511	512	31	30	
7	0	0	0	0	477	516	507	515	31	29	
8	0	0	0	0	478	516	505	512	31	30	
9	0	0	0	0	488	515	504	511	31	32	
10	0	0	0	0	494	516	501	514	31	33	
11	0	0	0	0	492	513	502	514	31	33	
12	0	0	0	0	497	513	506	511	31	31	
13	0	0	0	0	500	513	507	510	31	31	
14	0	0	0	0	504	513	513	508	31	32	
15	0	0	0	0	515	511	516	505	31	31	
0	0	0	0	0	532	510	518	505	31	32	
1	0	0	0	0	530	508	517	507	31	32	
2	0	0	0	0	506	511	516	510	31	32	
3	0	0	0	0	486	510	518	512	31	32	
4	0	0	0	0	492	511	515	508	31	33	
5	0	0	0	0	499	511	512	511	32	32	
6	0	0	0	0	507	510	509	509	31	32	
7	0	0	0	0	513	508	510	512	31	32	
8	0	0	0	0	521	511	511	511	31	31	
9	0	0	0	0	526	510	511	509	31	31	
10	0	0	0	0	531	512	513	510	31	31	
11	0	0	0	0	543	518	510	512	31	30	
12	0	0	0	0	548	514	508	511	31	30	
13	0	0	0	0	546	516	512	511	31	29	
14	0	0	0	0	527	516	514	511	31	28	
15	0	0	0	0	507	517	513	509	31	29	
0	0	0	0	0	508	515	508	512	31	30	
1	0	0	0	0	515	512	506	510	32	31	
2	0	0	0	0	505	513	508	511	31	32	
3	0	0	0	0	498	510	516	509	31	34	
4	0	0	0	0	513	509	522	509	31	35	
5	0	0	0	0	521	507	519	509	31	35	
6	0	0	0	0	509	505	516	507	31	34	
7	0	0	0	0	487	509	510	508	31	33	
8	0	0	0	0	461	512	502	509	31	30	
9	0	0	0	0	454	517	502	512	31	31	
10	0	0	0	0	458	516	510	511	32	30	
11	0	0	0	0	481	515	511	509	32	30	
12	0	0	0	0	504	510	513	511	31	30	
13	0	0	0	0	519	512	509	511	31	31	
14	0	0	0	0	524	511	508	510	30	31	
15	0	0	0	0	515	513	510	507	31	31	
0	0	0	0	0	512	514	511	510	31	32	
1	0	0	0	0	497	514	518	510	33	31	
2	0	0	0	0	494	515	511	511	33	28	
3	0	0	0	0	502	518	508	515	32	23	
4	0	0	0	0	524	515	498	514	31	26	
5	0	0	0	0	539	522	501	508	30	34	
6	0	0	0	0	538	516	508	507	30	38	
7	0	0	0	0	511	509	517	507	30	39	
8	0	0	0	0	474	505	521	512	30	37	
9	0	0	0	0	454	496	520	510	31	35	
10	0	0	0	0	455	503	511	508	31	32	
11	0	0	0	0	469	500	506	510	31	31	
12	0	0	0	0	487	508	509	507	31	30	
13	0	0	0	0	481	513	512	508	31	30	
14	0	0	0	0	475	518	512	510	32	30	
15	0	0	0	0	486	518	514	511	32	29	
0	0	0	0	0	503	517	511	511	31	27	
1	0	0	0	0	513	515	514	513	31	28	
2	0	0	0	0	525	515	513	513	31	31	
3	0	0	0	0	522	514	515	510	31	34	
4	0	0	0	0	512	514	511	511	31	34	
5	0	0	0	0	503	512	509	512	31	33	
6	0	0	0	0	510	511	514	506	31	32	
7	0	0	0	0	526	513	515	508	31	31	
8	0	0	0	0	556	511	513	510	31	30	
9	0	0	0	0	552	513	506	510	31	28	
10	0	0	0	0	535	510	501	510	31	28	
11	0	0	0	0	494	518	503	508	31	30	
12	0	0	0	0	475	518	504	511	31	32	
13	0	0	0	0	462	518	508	511	31	33	
14	0	0	0	0	472	519	509	508	31	33	
15	0	0	0	0	482	514	510	511	31	33	
0	0	0	0	0	485	505	506	512	31	31	
1	0	0	0	0	492	513	504	514	31	30	
2	0	0	0	0	502	516	504	513	31	31	
3	0	0	0	0	503	508	505	510	31	33	
4	0	0	0	0	492	504	497	511	31	33	
5	0	0	0	0	491	504	497	512	31	31	
6	0	0	0	0	508	504	497	511	31	30	
7	0	0	0	0	513	509	500	508	31	32	
8	0	0	0	0	515	510	507	508	31	33	
9	0	0	0	0	500	504	511	511	31	33	
10	0	0	0	0	495	513	511	511	31	32	
11	0	0	0	0	486	516	506	509	31	32	
12	0	0	0	0	495	515	507	509	31	31	
13	0	0	0	0	507	517	507	509	31	31	
14	0	0	0	0	512	517	502	505	31	31	
15	0	0	0	0	524	516	499	508	31	30	
0	0	0	0	0	527	518	504	508	31	30	
1	0	0	0	0	528	514	507	512	31	29	
2	0	0	0	0	537	513	506	510	31	30	
3	0	0	0	0	545	513	507	509	31	31	
4	0	0	0	0	551	511	511	511	31	30	
5	0	0	0	0	527	511	509	512	31	31	
6	0	0	0	0	479	513	504	513	31	32	
7	0	0	0	0	450	512	507	509	31	33	
8	0	0	0	0	449	513	508	512	31	32	
9	0	0	0	0	468	515	509	510	31	32	
10	0	0	0	0	482	505	511	508	31	32	
11	0	0	0	0	500	509	512	510	31	33	
12	0	0	0	0	503	517	512	511	31	31	
13	0	0	0	0	518	514	510	509	31	30	
14	0	0	0	0	529	511	510	506	31	32	
15	0	0	0	0	519	508	516	507	31	33	
0	0	0	0	0	498	510	513	511	31	33	
1	0	0	0	0	499	512	509	511	31	32	
2	0	0	0	0	487	512	507	513	31	32	
3	0	0	0	0	470	508	507	512	31	32	
4	0	0	0	0	482	510	509	511	31	31	
5	0	0	0	0	499	513	514	511	31	30	
6	0	0	0	0	513	514	516	510	31	30	
7	0	0	0	0	526	515	516	508	31	30	
8	0	0	0	0	523	511	512	508	31	31	
9	0	0	0	0	520	513	513	507	31	33	
10	0	0	0	0	504	510	515	508	31	33	
11	0	0	0	0	479	515	518	509	31	32	
12	0	0	0	0	486	510	518	511	31	31	
13	0	0	0	0	505	508	515	508	31	30	
14	0	0	0	0	507	513	517	511	31	31	
15	0	0	0	0	502	515	522	511	31	32	
0	0	0	0	0	480	516	521	510	31	32	
1	0	0	0	0	491	514	518	511	31	31	
2	0	0	0	0	488	512	518	511	31	31	
3	0	0	0	0	491	513	519	513	31	33	
4	0	0	0	0	487	511	518	511	31	33	
5	0	0	0	0	488	512	514	512	31	33	
6	0	0	0	0	501	515	517	509	31	32	
7	0	0	0	0	512	516	517	509	31	31	
8	0	0	0	0	521	506	518	510	31	31	
9	0	0	0	0	534	516	518	510	31	31	
10	0	0	0	0	537	510	519	510	31	31	
11	0	0	0	0	529	511	518	509	31	31	
12	0	0	0	0	504	511	511	512	31	31	
13	0	0	0	0	494	516	512	511	31	31	
14	0	0	0	0	496	513	513	512	31	31	
15	0	0	0	0	498	512	511	511	31	30	
0	0	0	0	0	513	509	510	512	31	30	
1	0	0	0	0	513	513	512	507	31	31	
2	0	0	0	0	519	518	513	510	31	32	
3	0	0	0	0	507	511	511	510	31	32	
4	0	0	0	0	489	514	515	512	31	32	
5	0	0	0	0	486	511	514	514	31	31	
6	0	0	0	0	478	512	514	508	31	31	
7	0	0	0	0	474	515	515	510	31	31	
8	0	0	0	0	492	513	515	507	31	32	
9	0	0	0	0	499	512	511	508	31	34	
10	0	0	0	0	500	512	510	511	31	33	
11	0	0	0	0	497	516	512	510	31	33	
12	0	0	0	0	492	513	511	511	31	33	
13	0	0	0	0	486	504	514	510	31	32	
14	0	0	0	0	491	509	515	507	31	31	
15	0	0	0	0	505	513	512	509	31	31	
0	0	0	0	0	517	511	514	508	31	31	
1	0	0	0	0	523	514	511	509	31	31	
2	0	0	0	0	528	515	510	511	31	31	
3	0	0	0	0	529	516	514	512	31	30	
4	0	0	0	0	529	512	515	510	31	30	
5	0	0	0	0	525	513	511	508	31	29	
6	0	0	0	0	524	513	512	510	31	30	
7	0	0	0	0	514	516	515	510	31	31	
8	0	0	0	0	516	515	512	510	31	32	
9	0	0	0	0	519	512	514	507	31	33	
10	0	0	0	0	524	512	516	509	31	32	
11	0	0	0	0	514	515	513	512	31	32	
12	0	0	0	0	494	509	511	513	31	33	
13	0	0	0	0	458	499	513	510	31	33	
14	0	0	0	0	443	512	514	508	31	33	
15	0	0	0	0	450	508	516	509	31	32	
0	0	0	0	0	472	499	514	508	31	31	
1	0	0	0	0	499	511	515	510	31	31	
2	0	0	0	0	520	515	513	511	32	29	
3	0	0	0	0	531	508	511	513	31	29	
4	0	0	0	0	529	529	510	513	31	30	
5	0	0	0	0	514	512	510	514	31	32	
6	0	0	0	0	499	525	510	509	31	33	
7	0	0	0	0	486	515	513	508	31	33	
8	0	0	0	0	493	514	510	508	31	32	
9	0	0	0	0	519	511	515	506	31	32	
10	0	0	0	0	523	514	514	507	31	32	
11	0	0	0	0	515	518	514	511	31	31	
12	0	0	0	0	503	512	513	509	31	29	
13	0	0	0	0	508	508	512	513	31	28	
14	0	0	0	0	521	511	507	514	31	30	
15	0	0	0	0	506	515	511	513	31	32	
0	0	0	0	0	482	513	511	514	31	33	
1	0	0	0	0	469	501	514	509	31	33	
2	0	0	0	0	469	504	518	506	31	32	
3	0	0	0	0	479	507	513	507	31	33	
4	0	0	0	0	479	515	513	511	31	32	
5	0	0	0	0	480	518	514	511	31	31	
6	0	0	0	0	486	516	511	510	31	29	
7	0	0	0	0	499	519	510	512	31	30	
8	0	0	0	0	511	519	510	513	31	32	
9	0	0	0	0	509	519	513	514	31	33	
10	0	0	0	0	511	513	519	511	31	33	
11	0	0	0	0	520	507	517	506	31	32	
12	0	0	0	0	531	504	515	502	31	32	
13	0	0	0	0	536	516	517	503	31	32	
14	0	0	0	0	511	505	512	504	31	31	
15	0	0	0	0	483	502	509	509	31	31	
0	0	0	0	0	468	511	508	514	31	31	
1	0	0	0	0	475	523	508	511	31	31	
2	0	0	0	0	490	524	509	512	31	30	
3	0	0	0	0	504	521	508	513	31	29	
4	0	0	0	0	519	515	516	513	31	30	
5	0	0	0	0	505	516	512	510	31	31	
6	0	0	0	0	503	519	508	512	31	32	
7	0	0	0	0	516	513	513	505	31	33	
8	0	0	0	0	507	505	510	507	31	33	
9	0	0	0	0	509	499	511	515	31	33	
10	0	0	0	0	504	499	512	515	31	32	
11	0	0	0	0	499	508	516	507	31	32	
12	0	0	0	0	500	507	521	503	31	31	
13	0	0	0	0	502	513	514	505	31	31	
14	0	0	0	0	508	510	511	506	31	30	
15	0	0	0	0	510	512	512	513	31	28	
0	0	0	0	0	518	515	510	511	31	28	
1	0	0	0	0	529	525	504	514	31	31	
2	0	0	0	0	511	515	509	509	31	33	
3	0	0	0	0	503	517	518	507	31	33	
4	0	0	0	0	513	508	524	504	31	33	
5	0	0	0	0	503	494	524	508	31	33	
6	0	0	0	0	478	491	515	512	31	33	
7	0	0	0	0	447	502	508	504	31	33	
8	0	0	0	0	439	523	512	506	31	33	
9	0	0	0	0	458	514	511	515	31	32	
10	0	0	0	0	475	515	505	519	31	32	
11	0	0	0	0	499	536	500	519	31	31	
12	0	0	0	0	510	536	504	518	31	30	
13	0	0	0	0	517	519	505	509	31	29	
14	0	0	0	0	534	519	507	507	31	28	
15	0	0	0	0	553	514	511	514	31	29	
0	0	0	0	0	551	507	515	511	31	30	
1	0	0	0	0	523	511	512	512	31	32	
2	0	0	0	0	483	509	511	508	31	34	
3	0	0	0	0	465	499	515	511	31	35	
4	0	0	0	0	479	512	513	511	31	34	
5	0	0	0	0	498	509	511	510	31	34	
6	0	0	0	0	489	523	510	507	31	32	
7	0	0	0	0	492	515	515	507	31	31	
8	0	0	0	0	497	512	516	504	31	31	
9	0	0	0	0	504	495	511	502	31	31	
10	0	0	0	0	524	488	513	506	31	30	
11	0	0	0	0	521	494	516	511	31	31	
12	0	0	0	0	516	507	515	511	31	29	
13	0	0	0	0	529	529	515	508	31	27	
14	0	0	0	0	534	540	509	515	31	29	
15	0	0	0	0	523	526	504	519	31	32	
0	0	0	0	0	520	521	507	515	31	34	
1	0	0	0	0	507	508	512	512	31	33	
2	0	0	0	0	466	508	515	514	31	32	
3	0	0	0	0	455	521	515	516	31	32	
4	0	0	0	0	453	516	512	513	31	32	
5	0	0	0	0	467	499	511	508	31	32	
6	0	0	0	0	487	507	508	509	31	31	
7	0	0	0	0	512	518	510	506	31	32	
8	0	0	0	0	531	521	512	498	31	32	
9	0	0	0	0	539	516	512	496	31	32	
10	0	0	0	0	519	499	516	494	31	31	
11	0	0	0	0	505	488	514	502	31	30	
12	0	0	0	0	507	506	512	511	31	29	
13	0	0	0	0	526	503	511	513	31	30	
14	0	0	0	0	528	508	510	517	31	31	
15	0	0	0	0	521	505	508	530	31	32	
0	0	0	0	0	493	508	508	529	31	31	
1	0	0	0	0	461	512	504	525	31	27	
2	0	0	0	0	461	487	505	516	31	28	
3	0	0	0	0	486	479	504	507	31	32	
4	0	0	0	0	505	506	509	502	31	35	
5	0	0	0	0	493	547	512	502	31	36	
6	0	0	0	0	491	555	514	503	31	36	
7	0	0	0	0	482	557	518	503	31	35	
8	0	0	0	0	495	542	519	508	31	33	
9	0	0	0	0	504	519	519	507	31	32	
10	0	0	0	0	519	512	516	505	31	31	
11	0	0	0	0	516	503	512	505	31	29	
12	0	0	0	0	517	503	506	512	31	29	
13	0	0	0	0	531	523	507	512	31	29	
14	0	0	0	0	541	514	508	510	31	29	
15	0	0	0	0	538	509	511	511	31	31	
0	0	0	0	0	526	508	515	508	31	31	
1	0	0	0	0	508	512	518	503	31	32	
2	0	0	0	0	493	511	519	496	31	33	
3	0	0	0	0	467	491	520	499	31	33	
4	0	0	0	0	475	504	515	505	31	32	
5	0	0	0	0	483	518	512	514	31	32	
6	0	0	0	0	510	519	506	519	31	31	
7	0	0	0	0	522	486	503	529	31	30	
8	0	0	0	0	503	484	510	532	31	31	
9	0	0	0	0	487	501	510	523	31	31	
10	0	0	0	0	483	527	509	512	31	31	
11	0	0	0	0	488	534	511	504	31	32	
12	0	0	0	0	493	522	510	503	31	32	
13	0	0	0	0	502	512	507	515	31	32	
14	0	0	0	0	510	504	508	518	31	32	
15	0	0	0	0	511	501	511	512	31	32	
0	0	0	0	0	518	521	514	505	31	31	
1	0	0	0	0	520	525	511	502	31	30	
2	0	0	0	0	521	513	513	499	31	31	
3	0	0	0	0	518	515	514	507	31	31	
4	0	0	0	0	526	510	509	518	31	31	
5	0	0	0	0	512	509	507	515	31	32	
6	0	0	0	0	514	512	510	508	31	31	
7	0	0	0	0	518	513	513	504	31	31	
8	0	0	0	0	526	513	512	500	31	30	
9	0	0	0	0	506	494	513	505	32	30	
10	0	0	0	0	491	499	513	513	31	30	
11	0	0	0	0	508	492	511	515	31	32	
12	0	0	0	0	505	487	511	516	31	32	
13	0	0	0	0	491	505	510	507	31	33	
14	0	0	0	0	480	521	516	499	31	34	
15	0	0	0	0	478	534	516	497	32	33	
0	0	0	0	0	478	535	515	503	31	32	
1	0	0	0	0	483	518	514	506	31	31	
2	0	0	0	0	487	514	512	508	31	30	
3	0	0	0	0	497	524	510	509	31	29	
4	0	0	0	0	512	516	509	512	31	32	
5	0	0	0	0	507	514	510	514	32	33	
6	0	0	0	0	512	512	512	519	31	33	
7	0	0	0	0	531	510	509	524	31	33	
8	0	0	0	0	544	508	511	515	31	32	
9	0	0	0	0	521	516	512	514	31	32	
10	0	0	0	0	488	511	508	512	31	31	
11	0	0	0	0	480	510	513	508	31	30	
12	0	0	0	0	480	515	514	504	30	30	
13	0	0	0	0	488	519	510	504	31	30	
14	0	0	0	0	492	523	515	504	31	29	
15	0	0	0	0	504	513	512	505	31	27	
0	0	0	0	0	518	510	506	511	31	29	
1	0	0	0	0	526	502	501	518	32	33	
2	0	0	0	0	508	494	504	526	33	36	
3	0	0	0	0	492	502	511	527	33	35	
4	0	0	0	0	486	501	515	516	32	34	
5	0	0	0	0	484	507	514	505	31	33	
6	0	0	0	0	508	507	513	496	30	32	
7	0	0	0	0	526	504	517	491	30	31	
8	0	0	0	0	522	505	514	491	30	30	
9	0	0	0	0	519	518	511	498	30	30	
10	0	0	0	0	516	527	509	507	31	30	
11	0	0	0	0	519	528	506	515	31	31	
12	0	0	0	0	511	535	507	527	31	30	
13	0	0	0	0	511	532	508	529	31	31	
14	0	0	0	0	513	514	505	519	31	33	
15	0	0	0	0	504	511	512	507	32	33	
0	0	0	0	0	502	511	518	508	32	32	
1	0	0	0	0	480	509	515	512	33	31	
2	0	0	0	0	482	507	514	516	36	31	
3	0	0	0	0	501	508	510	510	35	32	
4	0	0	0	0	505	508	512	508	31	32	
5	0	0	0	0	511	504	515	506	27	32	
6	0	0	0	0	496	500	515	507	26	32	
7	0	0	0	0	499	499	513	509	27	31	
8	0	0	0	0	502	522	513	512	29	31	
9	0	0	0	0	500	531	515	510	30	31	
10	0	0	0	0	504	514	512	511	32	31	
11	0	0	0	0	505	519	510	504	32	31	
12	0	0	0	0	508	509	513	501	33	31	
13	0	0	0	0	507	510	516	502	35	30	
14	0	0	0	0	504	510	511	509	34	31	
15	0	0	0	0	494	508	509	511	32	31	
0	0	0	0	0	497	512	508	508	30	31	
1	0	0	0	0	510	506	513	507	29	31	
2	0	0	0	0	512	512	513	509	30	31	
3	0	0	0	0	506	517	511	513	32	31	
4	0	0	0	0	492	519	510	515	32	31	
5	0	0	0	0	482	524	508	512	31	32	
6	0	0	0	0	487	511	511	502	30	32	
7	0	0	0	0	502	496	513	503	30	32	
8	0	0	0	0	506	492	514	514	30	31	
9	0	0	0	0	512	494	513	524	30	30	
10	0	0	0	0	526	509	510	524	32	30	
11	0	0	0	0	530	515	506	523	33	32	
12	0	0	0	0	521	519	504	523	32	34	
13	0	0	0	0	512	525	508	517	30	33	
14	0	0	0	0	511	519	511	513	30	33	
15	0	0	0	0	502	511	513	502	30	34	
0	0	0	0	0	483	515	514	498	31	33	
1	0	0	0	0	465	509	516	499	31	31	
2	0	0	0	0	475	483	512	503	32	30	
3	0	0	0	0	489	496	514	510	32	30	
4	0	0	0	0	500	527	512	513	35	31	
5	0	0	0	0	502	535	514	512	33	31	
6	0	0	0	0	498	531	515	518	30	31	
7	0	0	0	0	506	530	514	512	28	31	
8	0	0	0	0	519	517	515	502	28	30	
9	0	0	0	0	519	512	515	499	30	30	
10	0	0	0	0	518	510	512	504	32	30	
11	0	0	0	0	508	508	508	508	33	31	
12	0	0	0	0	500	506	505	509	33	30	
13	0	0	0	0	495	508	510	501	32	31	
14	0	0	0	0	504	514	511	508	31	32	
15	0	0	0	0	505	518	516	513	31	32	
0	0	0	0	0	501	524	515	516	30	31	
1	0	0	0	0	505	518	515	516	30	31	
2	0	0	0	0	511	509	513	519	30	32	
3	0	0	0	0	515	502	509	506	31	34	
4	0	0	0	0	514	499	513	503	32	34	
5	0	0	0	0	501	487	514	504	32	33	
6	0	0	0	0	506	486	509	514	33	31	
7	0	0	0	0	509	512	508	518	33	31	
8	0	0	0	0	505	545	511	518	31	31	
9	0	0	0	0	508	552	516	515	30	31	
10	0	0	0	0	510	530	514	513	30	31	
11	0	0	0	0	501	516	514	510	30	32	
12	0	0	0	0	496	508	510	510	31	32	
13	0	0	0	0	480	505	507	509	32	31	
14	0	0	0	0	481	514	511	507	32	31	
15	0	0	0	0	472	518	513	508	32	32	
0	0	0	0	0	475	511	512	503	31	31	
1	0	0	0	0	497	509	514	503	30	29	
2	0	0	0	0	523	514	515	510	30	30	
3	0	0	0	0	527	519	511	512	30	30	
4	0	0	0	0	521	513	510	513	30	31	
5	0	0	0	0	515	503	505	513	30	31	
6	0	0	0	0	503	499	502	514	30	32	
7	0	0	0	0	492	500	511	513	31	34	
8	0	0	0	0	495	497	519	513	32	34	
9	0	0	0	0	493	494	516	509	34	34	
10	0	0	0	0	495	492	517	501	35	32	
11	0	0	0	0	511	502	515	497	33	31	
12	0	0	0	0	522	515	513	502	30	31	
13	0	0	0	0	525	519	512	513	28	31	
14	0	0	0	0	525	518	507	518	29	31	
15	0	0	0	0	520	523	506	515	29	30	
0	0	0	0	0	523	514	509	512	30	30	
1	0	0	0	0	529	506	510	508	32	31	
2	0	0	0	0	534	512	513	502	33	31	
3	0	0	0	0	531	517	516	501	32	31	
4	0	0	0	0	511	520	516	497	31	31	
5	0	0	0	0	480	531	512	504	31	30	
6	0	0	0	0	454	529	507	515	31	30	
7	0	0	0	0	461	526	504	529	31	31	
8	0	0	0	0	487	521	502	527	31	30	
9	0	0	0	0	521	519	505	526	31	30	
10	0	0	0	0	537	513	508	515	32	31	
11	0	0	0	0	539	502	513	505	31	32	
12	0	0	0	0	531	499	517	508	32	33	
13	0	0	0	0	521	507	512	507	32	34	
14	0	0	0	0	498	505	513	507	32	34	
15	0	0	0	0	490	486	514	506	33	33	
0	0	0	0	0	471	499	518	507	33	32	
1	0	0	0	0	464	513	515	515	32	31	
2	0	0	0	0	491	522	504	514	30	31	
3	0	0	0	0	535	525	506	513	29	32	
4	0	0	0	0	563	527	512	510	29	32	
5	0	0	0	0	527	513	516	504	33	32	
6	0	0	0	0	473	514	516	507	35	31	
7	0	0	0	0	459	525	521	508	32	32	
8	0	0	0	0	457	543	513	511	29	32	
9	0	0	0	0	467	521	505	508	27	31	
10	0	0	0	0	490	498	508	497	27	30	
11	0	0	0	0	495	486	511	496	29	30	
12	0	0	0	0	475	465	507	500	30	30	
13	0	0	0	0	457	479	499	512	32	30	
14	0	0	0	0	494	513	506	528	33	29	
15	0	0	0	0	550	540	505	537	35	30	
0	0	0	0	0	588	526	504	519	33	31	
1	0	0	0	0	579	519	508	504	32	32	
2	0	0	0	0	556	534	512	502	30	32	
3	0	0	0	0	525	538	512	512	30	31	
4	0	0	0	0	471	508	511	515	29	32	
5	0	0	0	0	425	494	516	511	30	33	
6	0	0	0	0	463	495	513	512	31	31	
7	0	0	0	0	524	508	508	515	31	31	
8	0	0	0	0	549	521	511	508	31	31	
9	0	0	0	0	560	527	513	501	32	31	
10	0	0	0	0	541	504	514	500	32	32	
11	0	0	0	0	493	495	516	498	32	33	
12	0	0	0	0	468	467	519	505	32	34	
13	0	0	0	0	464	467	519	507	32	33	
14	0	0	0	0	484	507	516	515	32	32	
15	0	0	0	0	523	530	512	516	32	32	
0	0	0	0	0	566	552	511	515	32	32	
1	0	0	0	0	577	545	511	510	32	31	
2	0	0	0	0	502	528	511	511	32	31	
3	0	0	0	0	429	512	506	510	31	30	
4	0	0	0	0	462	536	505	507	31	31	
5	0	0	0	0	565	552	507	507	31	33	
6	0	0	0	0	638	525	511	511	32	33	
7	0	0	0	0	665	531	507	512	31	32	
8	0	0	0	0	574	525	513	508	30	29	
9	0	0	0	0	490	495	517	503	30	27	
10	0	0	0	0	396	483	510	510	30	27	
11	0	0	0	0	405	511	507	511	31	30	
12	0	0	0	0	411	511	510	512	31	32	
13	0	0	0	0	409	470	511	513	31	34	
14	0	0	0	0	458	470	509	513	31	34	
15	0	0	0	0	511	513	510	523	31	34	
0	0	0	0	0	541	508	515	516	31	34	
1	0	0	0	0	553	496	518	504	32	34	
2	0	0	0	0	495	526	524	499	32	33	
3	0	0	0	0	462	551	520	498	31	32	
4	0	0	0	0	462	563	502	519	31	31	
5	0	0	0	0	463	526	489	532	31	32	
6	0	0	0	0	483	503	489	529	31	33	
7	0	0	0	0	483	493	498	514	32	32	
8	0	0	0	0	489	453	504	507	32	29	
9	0	0	0	0	497	443	507	500	32	29	
10	0	0	0	0	562	495	514	499	31	29	
11	0	0	0	0	616	540	520	500	31	28	
12	0	0	0	0	622	542	527	497	30	28	
13	0	0	0	0	544	529	521	504	31	31	
14	0	0	0	0	453	516	512	513	31	32	
15	0	0	0	0	422	526	505	510	32	32	
0	0	0	0	0	428	512	504	516	32	33	
1	0	0	0	0	470	489	504	515	32	33	
2	0	0	0	0	499	494	505	509	32	32	
3	0	0	0	0	507	502	508	503	31	32	
4	0	0	0	0	502	504	512	504	31	33	
5	0	0	0	0	508	540	512	504	31	31	
6	0	0	0	0	539	596	515	504	30	32	
7	0	0	0	0	547	615	515	507	30	31	
8	0	0	0	0	526	579	510	517	30	31	
9	0	0	0	0	516	536	509	513	30	31	
10	0	0	0	0	513	477	509	512	31	31	
11	0	0	0	0	506	445	509	511	32	31	
12	0	0	0	0	484	444	504	511	32	30	
13	0	0	0	0	483	458	507	517	33	30	
14	0	0	0	0	487	472	513	513	34	31	
15	0	0	0	0	477	474	516	513	32	32	
0	0	0	0	0	485	472	513	515	31	33	
1	0	0	0	0	544	464	508	513	31	33	
2	0	0	0	0	570	496	507	508	34	32	
3	0	0	0	0	574	529	509	503	35	31	
4	0	0	0	0	569	551	510	504	31	31	
5	0	0	0	0	541	556	510	505	27	32	
6	0	0	0	0	517	553	513	515	25	33	
7	0	0	0	0	497	541	513	517	26	32	
8	0	0	0	0	460	520	511	519	28	32	
9	0	0	0	0	476	505	507	517	31	32	
10	0	0	0	0	492	497	514	508	33	31	
11	0	0	0	0	475	512	519	502	33	30	
12	0	0	0	0	462	523	518	504	33	31	
13	0	0	0	0	508	539	512	512	34	31	
14	0	0	0	0	544	533	511	511	34	30	
15	0	0	0	0	526	503	509	503	33	31	
0	0	0	0	0	495	513	513	499	32	32	
1	0	0	0	0	494	496	512	497	32	32	
2	0	0	0	0	468	498	512	503	31	32	
3	0	0	0	0	459	503	511	518	30	31	
4	0	0	0	0	440	504	510	526	30	30	
5	0	0	0	0	482	483	507	526	30	31	
6	0	0	0	0	547	499	508	525	31	31	
7	0	0	0	0	539	500	511	515	30	31	
8	0	0	0	0	513	499	504	504	30	31	
9	0	0	0	0	506	532	508	503	30	32	
10	0	0	0	0	518	543	512	503	30	32	
11	0	0	0	0	533	536	515	502	30	32	
12	0	0	0	0	535	508	517	500	31	33	
13	0	0	0	0	512	492	512	503	33	33	
14	0	0	0	0	486	494	507	511	33	32	
15	0	0	0	0	481	524	502	519	32	32	
0	0	0	0	0	508	524	501	518	32	32	
1	0	0	0	0	525	519	506	516	32	31	
2	0	0	0	0	493	506	512	509	31	30	
3	0	0	0	0	458	509	512	509	32	30	
4	0	0	0	0	471	550	508	512	33	31	
5	0	0	0	0	510	568	507	510	32	31	
6	0	0	0	0	531	519	514	511	30	32	
7	0	0	0	0	521	461	511	511	29	31	
8	0	0	0	0	480	454	510	511	29	31	
9	0	0	0	0	484	470	508	507	29	31	
10	0	0	0	0	504	488	507	506	30	31	
11	0	0	0	0	507	502	505	501	34	31	
12	0	0	0	0	485	525	509	497	35	31	
13	0	0	0	0	515	518	516	503	33	30	
14	0	0	0	0	547	536	513	519	30	31	
15	0	0	0	0	542	563	514	517	29	32	
0	0	0	0	0	517	574	512	509	29	32	
1	0	0	0	0	523	551	511	511	31	33	
2	0	0	0	0	538	524	508	514	33	33	
3	0	0	0	0	511	517	509	519	35	33	
4	0	0	0	0	449	479	514	520	34	31	
5	0	0	0	0	429	491	517	513	34	31	
6	0	0	0	0	488	485	512	508	32	32	
7	0	0	0	0	534	438	512	500	30	33	
8	0	0	0	0	574	463	514	501	30	32	
9	0	0	0	0	549	487	515	508	28	31	
10	0	0	0	0	492	495	512	510	28	30	
11	0	0	0	0	478	534	514	513	28	30	
12	0	0	0	0	475	594	515	511	29	30	
13	0	0	0	0	463	574	517	508	30	31	
14	0	0	0	0	504	513	515	510	32	34	
15	0	0	0	0	565	511	521	507	35	34	
0	0	0	0	0	540	484	521	510	36	32	
1	0	0	0	0	480	487	518	515	33	30	
2	0	0	0	0	495	516	514	512	30	30	
3	0	0	0	0	517	545	515	513	29	30	
4	0	0	0	0	498	537	521	509	29	30	
5	0	0	0	0	476	495	521	504	29	29	
6	0	0	0	0	454	509	517	505	32	30	
7	0	0	0	0	493	544	511	510	32	32	
8	0	0	0	0	579	568	507	512	34	34	
9	0	0	0	0	584	537	507	516	34	34	
10	0	0	0	0	495	524	512	518	35	32	
11	0	0	0	0	409	473	513	512	32	31	
12	0	0	0	0	445	419	514	508	28	32	
13	0	0	0	0	467	425	513	509	27	35	
14	0	0	0	0	506	456	508	503	33	37	
15	0	0	0	0	548	485	500	505	33	35	
0	0	0	0	0	555	513	504	514	32	30	
1	0	0	0	0	528	549	523	512	30	26	
2	0	0	0	0	530	579	530	504	26	26	
3	0	0	0	0	550	578	530	507	25	27	
4	0	0	0	0	525	528	518	506	27	29	
5	0	0	0	0	519	508	507	509	30	31	
6	0	0	0	0	458	503	502	505	33	32	
7	0	0	0	0	415	518	509	511	34	32	
8	0	0	0	0	428	515	516	514	34	32	
9	0	0	0	0	475	484	519	512	32	33	
10	0	0	0	0	511	412	521	518	33	33	
11	0	0	0	0	504	446	521	521	34	31	
12	0	0	0	0	491	515	512	512	33	31	
13	0	0	0	0	483	584	518	502	31	31	
14	0	0	0	0	512	552	517	498	30	31	
15	0	0	0	0	515	516	505	511	28	31	
0	0	0	0	0	504	525	496	519	29	32	
1	0	0	0	0	472	533	499	519	30	32	
2	0	0	0	0	447	503	502	519	31	32	
3	0	0	0	0	461	496	509	515	32	33	
4	0	0	0	0	519	571	513	508	32	33	
5	0	0	0	0	602	615	513	504	32	35	
6	0	0	0	0	609	604	509	506	32	33	
7	0	0	0	0	545	508	510	510	33	32	
8	0	0	0	0	496	436	514	507	33	31	
9	0	0	0	0	468	425	517	507	32	30	
10	0	0	0	0	472	448	512	507	31	30	
11	0	0	0	0	475	473	514	507	30	31	
12	0	0	0	0	492	514	512	508	30	31	
13	0	0	0	0	501	536	512	508	31	31	
14	0	0	0	0	511	526	511	513	32	31	
15	0	0	0	0	528	504	507	514	33	33	
0	0	0	0	0	531	508	503	513	35	33	
1	0	0	0	0	532	510	504	508	33	33	
2	0	0	0	0	534	521	508	508	29	32	
3	0	0	0	0	516	528	509	511	27	31	
4	0	0	0	0	502	543	506	507	27	32	
5	0	0	0	0	508	527	508	510	29	33	
6	0	0	0	0	505	517	511	510	31	30	
7	0	0	0	0	443	511	515	506	33	27	
8	0	0	0	0	359	500	516	506	33	27	
9	0	0	0	0	404	487	515	504	33	27	
10	0	0	0	0	472	497	510	506	33	29	
11	0	0	0	0	512	516	507	514	32	30	
12	0	0	0	0	537	500	506	518	32	32	
13	0	0	0	0	577	524	499	527	31	34	
14	0	0	0	0	611	543	503	527	30	34	
15	0	0	0	0	627	499	502	516	29	35	
0	0	0	0	0	580	481	497	510	29	34	
1	0	0	0	0	491	496	501	503	29	34	
2	0	0	0	0	462	536	506	500	30	35	
3	0	0	0	0	494	566	510	504	31	33	
4	0	0	0	0	537	527	510	511	31	33	
5	0	0	0	0	539	471	512	511	32	30	
6	0	0	0	0	473	457	509	511	32	29	
7	0	0	0	0	483	471	510	518	32	28	
8	0	0	0	0	427	520	518	507	32	28	
9	0	0	0	0	403	591	518	502	31	28	
10	0	0	0	0	439	582	518	501	31	30	
11	0	0	0	0	494	505	511	499	31	33	
12	0	0	0	0	530	445	511	509	31	33	
13	0	0	0	0	495	446	509	517	31	33	
14	0	0	0	0	487	482	512	519	31	33	
15	0	0	0	0	560	534	512	517	31	32	
0	0	0	0	0	543	533	516	516	31	32	
1	0	0	0	0	464	521	518	509	31	32	
2	0	0	0	0	445	519	515	513	31	31	
3	0	0	0	0	477	532	512	511	32	31	
4	0	0	0	0	472	524	512	513	31	30	
5	0	0	0	0	472	528	514	511	31	30	
6	0	0	0	0	488	551	513	510	31	31	
7	0	0	0	0	492	541	514	509	31	32	
8	0	0	0	0	560	504	515	508	31	32	
9	0	0	0	0	606	467	514	510	31	32	
10	0	0	0	0	592	458	512	513	31	33	
11	0	0	0	0	552	500	512	509	31	34	
12	0	0	0	0	503	529	511	503	31	34	
13	0	0	0	0	465	535	512	503	31	33	
14	0	0	0	0	395	536	512	505	31	32	
15	0	0	0	0	391	492	513	507	31	31	
0	0	0	0	0	426	479	512	509	31	31	
1	0	0	0	0	395	485	515	509	31	28	
2	0	0	0	0	443	516	518	514	31	28	
3	0	0	0	0	532	551	516	512	31	29	
4	0	0	0	0	611	574	516	510	31	30	
5	0	0	0	0	607	500	513	512	31	31	
6	0	0	0	0	547	441	510	515	31	33	
7	0	0	0	0	524	471	504	513	31	34	
8	0	0	0	0	575	504	510	511	31	32	
9	0	0	0	0	567	519	516	503	31	30	
10	0	0	0	0	527	535	513	499	31	32	
11	0	0	0	0	452	560	513	505	31	31	
12	0	0	0	0	392	563	510	520	31	31	
13	0	0	0	0	431	545	509	524	31	30	
14	0	0	0	0	496	524	511	521	31	30	
15	0	0	0	0	508	504	515	512	31	31	
0	0	0	0	0	496	492	515	505	31	31	
1	0	0	0	0	497	494	518	506	31	30	
2	0	0	0	0	516	518	517	512	31	31	
3	0	0	0	0	528	520	514	515	31	32	
4	0	0	0	0	519	511	515	511	31	32	
5	0	0	0	0	519	518	510	506	31	33	
6	0	0	0	0	536	534	515	504	31	33	
7	0	0	0	0	520	529	514	499	31	34	
8	0	0	0	0	478	507	514	506	31	33	
9	0	0	0	0	444	486	516	511	31	32	
10	0	0	0	0	428	437	513	515	31	31	
11	0	0	0	0	437	436	512	517	31	30	
12	0	0	0	0	459	508	512	516	31	31	
13	0	0	0	0	500	529	511	510	31	32	
14	0	0	0	0	517	546	512	507	31	33	
15	0	0	0	0	480	536	508	503	31	35	
0	0	0	0	0	510	499	512	499	31	33	
1	0	0	0	0	552	481	516	505	31	30	
2	0	0	0	0	579	497	518	504	31	29	
3	0	0	0	0	560	520	516	503	31	31	
4	0	0	0	0	528	525	515	504	31	31	
5	0	0	0	0	495	524	515	517	31	30	
6	0	0	0	0	487	520	510	526	31	30	
7	0	0	0	0	507	514	512	520	31	30	
8	0	0	0	0	582	531	512	514	31	31	
9	0	0	0	0	591	540	512	511	31	33	
10	0	0	0	0	478	537	510	519	31	33	
11	0	0	0	0	422	547	510	519	31	32	
12	0	0	0	0	419	528	510	515	31	31	
13	0	0	0	0	415	510	511	510	31	30	
14	0	0	0	0	452	490	513	504	31	31	
15	0	0	0	0	464	473	513	502	31	32	
0	0	0	0	0	487	463	515	502	31	32	
1	0	0	0	0	518	455	516	512	31	32	
2	0	0	0	0	529	489	513	512	31	31	
3	0	0	0	0	521	528	515	504	31	31	
4	0	0	0	0	506	527	514	505	31	30	
5	0	0	0	0	517	520	514	508	31	31	
6	0	0	0	0	533	524	511	511	31	32	
7	0	0	0	0	518	526	512	512	31	32	
8	0	0	0	0	502	527	510	513	31	32	
9	0	0	0	0	487	536	512	511	31	32	
10	0	0	0	0	499	535	513	508	31	31	
11	0	0	0	0	504	524	513	508	31	32	
12	0	0	0	0	529	524	514	506	31	33	
13	0	0	0	0	548	529	512	505	31	32	
14	0	0	0	0	531	537	511	510	31	31	
15	0	0	0	0	507	499	509	512	31	31	
0	0	0	0	0	486	472	508	511	31	32	
1	0	0	0	0	489	487	511	513	31	33	
2	0	0	0	0	487	524	515	509	31	33	
3	0	0	0	0	494	516	517	510	31	32	
4	0	0	0	0	475	495	514	506	31	29	
5	0	0	0	0	499	496	513	504	31	29	
6	0	0	0	0	507	523	509	512	31	30	
7	0	0	0	0	496	531	509	515	31	31	
8	0	0	0	0	490	519	507	521	31	32	
9	0	0	0	0	502	499	503	517	31	32	
10	0	0	0	0	517	497	512	512	31	32	
11	0	0	0	0	513	492	514	510	31	32	
12	0	0	0	0	502	514	514	510	31	32	
13	0	0	0	0	510	511	512	508	31	32	
14	0	0	0	0	518	512	511	507	31	32	
15	0	0	0	0	518	501	511	505	32	31	
0	0	0	0	0	504	519	511	508	31	32	
1	0	0	0	0	497	529	511	509	31	31	
2	0	0	0	0	496	521	515	507	31	31	
3	0	0	0	0	489	500	518	510	31	31	
4	0	0	0	0	505	493	517	508	31	31	
5	0	0	0	0	519	504	515	510	31	31	
6	0	0	0	0	504	519	512	511	31	31	
7	0	0	0	0	486	522	512	512	31	31	
8	0	0	0	0	468	531	509	511	31	31	
9	0	0	0	0	483	536	511	510	31	31	
10	0	0	0	0	513	538	509	511	31	31	
11	0	0	0	0	520	510	512	510	31	32	
12	0	0	0	0	518	498	511	508	31	32	
13	0	0	0	0	510	499	510	512	31	32	
14	0	0	0	0	505	494	510	516	31	31	
15	0	0	0	0	515	496	513	515	31	31	
0	0	0	0	0	515	511	513	507	31	31	
1	0	0	0	0	506	513	511	506	31	31	
2	0	0	0	0	502	512	510	512	31	32	
3	0	0	0	0	526	526	510	512	31	32	
4	0	0	0	0	521	527	510	515	31	32	
5	0	0	0	0	517	513	513	512	31	32	
6	0	0	0	0	507	504	513	510	31	31	
7	0	0	0	0	490	515	509	508	31	31	
8	0	0	0	0	483	515	510	507	31	31	
9	0	0	0	0	483	532	510	507	31	31	
10	0	0	0	0	490	548	511	509	31	31	
11	0	0	0	0	496	524	512	509	31	31	
12	0	0	0	0	503	504	517	508	31	32	
13	0	0	0	0	498	494	515	507	31	32	
14	0	0	0	0	497	509	512	507	31	31	
15	0	0	0	0	483	507	513	508	31	31	
0	0	0	0	0	487	475	516	510	31	31	
1	0	0	0	0	492	463	514	513	31	31	
2	0	0	0	0	500	481	513	513	31	31	
3	0	0	0	0	519	507	513	513	31	32	
4	0	0	0	0	542	527	509	513	31	32	
5	0	0	0	0	532	531	510	508	31	32	
6	0	0	0	0	499	545	515	507	31	32	
7	0	0	0	0	483	558	512	504	31	31	
8	0	0	0	0	491	545	510	507	31	32	
9	0	0	0	0	504	494	509	510	31	31	
10	0	0	0	0	507	489	510	515	31	31	
11	0	0	0	0	499	498	507	518	31	31	
12	0	0	0	0	508	501	511	512	31	31	
13	0	0	0	0	503	514	514	509	31	31	
14	0	0	0	0	501	516	510	510	31	31	
15	0	0	0	0	501	515	509	508	31	31	
0	0	0	0	0	499	524	512	510	31	32	
1	0	0	0	0	490	524	511	510	31	33	
2	0	0	0	0	495	529	512	506	31	33	
3	0	0	0	0	503	519	514	507	31	32	
4	0	0	0	0	508	494	518	505	31	30	
5	0	0	0	0	477	489	515	506	31	31	
6	0	0	0	0	489	503	513	510	31	30	
7	0	0	0	0	520	503	512	513	31	31	
8	0	0	0	0	510	516	511	515	31	32	
9	0	0	0	0	503	513	507	515	31	32	
10	0	0	0	0	511	509	509	514	31	32	
11	0	0	0	0	493	513	514	511	31	31	
12	0	0	0	0	480	514	515	508	31	31	
13	0	0	0	0	484	524	512	511	31	31	
14	0	0	0	0	508	528	514	511	31	32	
15	0	0	0	0	508	533	514	510	31	32	
0	0	0	0	0	520	536	515	513	31	32	
1	0	0	0	0	521	534	513	510	31	32	
2	0	0	0	0	491	518	513	506	31	31	
3	0	0	0	0	454	487	514	505	31	31	
4	0	0	0	0	458	470	513	506	31	31	
5	0	0	0	0	500	477	513	511	31	31	
6	0	0	0	0	534	500	511	509	31	31	
7	0	0	0	0	560	504	512	510	31	32	
8	0	0	0	0	562	508	512	509	31	32	
9	0	0	0	0	538	517	513	508	31	32	
10	0	0	0	0	516	528	509	515	31	32	
11	0	0	0	0	489	520	510	518	31	31	
12	0	0	0	0	484	539	512	512	31	31	
13	0	0	0	0	500	543	513	505	31	31	
14	0	0	0	0	502	532	511	504	31	32	
15	0	0	0	0	479	516	513	509	31	32	
0	0	0	0	0	490	512	511	516	31	32	
1	0	0	0	0	507	479	513	510	31	31	
2	0	0	0	0	512	471	512	514	31	32	
3	0	0	0	0	485	497	514	511	31	32	
4	0	0	0	0	470	505	511	510	31	32	
5	0	0	0	0	486	512	512	513	31	31	
6	0	0	0	0	490	525	513	516	31	31	
7	0	0	0	0	492	528	512	514	31	31	
8	0	0	0	0	500	512	513	511	31	31	
9	0	0	0	0	515	500	513	503	31	32	
10	0	0	0	0	528	521	514	504	31	31	
11	0	0	0	0	527	526	510	505	31	32	
12	0	0	0	0	520	512	510	507	31	32	
13	0	0	0	0	502	497	511	509	31	32	
14	0	0	0	0	493	499	508	508	31	31	
15	0	0	0	0	494	508	510	511	31	31	
0	0	0	0	0	489	513	512	511	31	31	
1	0	0	0	0	491	516	513	511	31	31	
2	0	0	0	0	495	513	513	508	31	31	
3	0	0	0	0	491	512	513	509	31	31	
4	0	0	0	0	489	521	513	510	31	31	
5	0	0	0	0	507	524	514	511	31	31	
6	0	0	0	0	509	514	512	512	31	31	
7	0	0	0	0	496	505	514	508	31	31	
8	0	0	0	0	499	506	516	504	31	31	
9	0	0	0	0	494	529	515	508	31	31	
10	0	0	0	0	509	536	513	512	31	31	
11	0	0	0	0	520	521	508	518	31	32	
12	0	0	0	0	518	496	508	519	31	32	
13	0	0	0	0	512	487	508	515	31	32	
14	0	0	0	0	507	491	507	510	31	32	
15	0	0	0	0	500	506	510	511	31	32	
0	0	0	0	0	488	527	514	511	31	31	
1	0	0	0	0	491	529	513	509	31	31	
2	0	0	0	0	500	506	512	509	31	31	
3	0	0	0	0	502	499	512	506	31	32	
4	0	0	0	0	502	505	513	505	31	32	
5	0	0	0	0	497	527	512	508	31	31	
6	0	0	0	0	497	526	512	511	31	31	
7	0	0	0	0	496	512	512	512	31	31	
8	0	0	0	0	488	508	512	515	31	31	
9	0	0	0	0	490	509	517	508	31	31	
10	0	0	0	0	497	511	513	510	31	31	
11	0	0	0	0	501	512	513	512	31	32	
12	0	0	0	0	503	513	515	509	31	32	
13	0	0	0	0	503	515	506	505	31	32	
14	0	0	0	0	503	512	508	504	31	31	
15	0	0	0	0	502	508	509	510	31	32	
0	0	0	0	0	501	512	510	513	31	32	
1	0	0	0	0	499	514	512	506	31	31	
2	0	0	0	0	495	510	511	507	31	31	
3	0	0	0	0	494	508	508	508	31	31	
4	0	0	0	0	495	514	511	509	31	31	
5	0	0	0	0	493	515	514	511	31	31	
6	0	0	0	0	490	517	513	512	31	31	
7	0	0	0	0	493	521	511	516	31	31	
8	0	0	0	0	488	519	510	516	31	31	
9	0	0	0	0	493	517	510	513	31	31	
10	0	0	0	0	499	508	511	507	31	31	
11	0	0	0	0	481	501	515	510	31	32	
12	0	0	0	0	483	505	518	509	31	31	
13	0	0	0	0	487	511	515	515	31	31	
14	0	0	0	0	485	520	511	515	31	32	
15	0	0	0	0	487	524	511	509	31	32	
0	0	0	0	0	480	520	509	507	31	32	
1	0	0	0	0	477	518	512	501	31	31	
2	0	0	0	0	481	513	512	500	31	31	
3	0	0	0	0	508	505	515	506	31	31	
4	0	0	0	0	524	497	513	514	31	31	
5	0	0	0	0	521	489	512	514	31	32	
6	0	0	0	0	516	488	510	515	31	32	
7	0	0	0	0	516	499	511	515	31	32	
8	0	0	0	0	512	508	510	516	31	32	
9	0	0	0	0	508	514	508	512	31	31	
10	0	0	0	0	501	516	509	511	31	32	
11	0	0	0	0	494	519	518	507	31	32	
12	0	0	0	0	495	519	517	501	31	31	
13	0	0	0	0	501	518	513	511	31	31	
14	0	0	0	0	504	518	511	512	31	31	
15	0	0	0	0	508	521	510	515	31	31	
0	0	0	0	0	508	521	510	511	31	31	
1	0	0	0	0	495	519	511	508	31	31	
2	0	0	0	0	494	515	513	510	31	31	
3	0	0	0	0	501	510	513	511	31	31	
4	0	0	0	0	507	508	511	511	31	31	
5	0	0	0	0	515	512	512	511	31	32	
6	0	0	0	0	518	516	511	510	31	32	
7	0	0	0	0	518	512	512	509	31	31	
8	0	0	0	0	520	512	515	515	31	32	
9	0	0	0	0	521	515	514	513	31	31	
10	0	0	0	0	518	513	511	508	31	32	
11	0	0	0	0	517	513	509	496	31	31	
12	0	0	0	0	515	514	507	503	31	31	
13	0	0	0	0	515	515	510	507	31	31	
14	0	0	0	0	512	520	510	509	31	32	
15	0	0	0	0	508	519	510	513	31	31	
0	0	0	0	0	507	515	511	511	31	31	
1	0	0	0	0	506	516	511	510	31	31	
2	0	0	0	0	507	511	512	506	31	31	
3	0	0	0	0	508	505	510	509	31	31	
4	0	0	0	0	511	510	510	517	31	31	
5	0	0	0	0	507	510	512	521	31	31	
6	0	0	0	0	504	511	515	518	31	31	
7	0	0	0	0	509	507	514	512	31	32	
8	0	0	0	0	513	499	510	500	31	31	
9	0	0	0	0	516	497	512	505	31	31	
10	0	0	0	0	516	503	511	507	31	32	
11	0	0	0	0	513	505	508	511	31	32	
12	0	0	0	0	515	515	513	510	31	31	
13	0	0	0	0	516	518	514	513	31	32	
14	0	0	0	0	512	519	515	508	31	32	
15	0	0	0	0	510	516	517	508	31	32	
0	0	0	0	0	507	519	515	512	31	32	
1	0	0	0	0	506	521	511	515	31	31	
2	0	0	0	0	504	518	510	513	31	31	
3	0	0	0	0	504	515	505	509	31	31	
4	0	0	0	0	504	513	517	496	31	31	
5	0	0	0	0	506	511	519	504	31	31	
6	0	0	0	0	508	504	513	508	31	31	
7	0	0	0	0	505	504	510	513	31	31	
8	0	0	0	0	508	508	513	518	31	31	
9	0	0	0	0	508	513	510	518	31	31	
10	0	0	0	0	506	514	511	510	31	31	
11	0	0	0	0	504	511	517	502	31	31	
12	0	0	0	0	503	508	515	506	31	32	
13	0	0	0	0	503	510	510	510	31	32	
14	0	0	0	0	503	512	510	510	31	32	
15	0	0	0	0	508	510	511	511	31	32	
0	0	0	0	0	507	512	513	514	31	32	
1	0	0	0	0	507	513	510	515	31	31	
2	0	0	0	0	502	518	508	511	31	32	
3	0	0	0	0	502	518	510	510	31	31	
4	0	0	0	0	502	516	510	510	31	31	
5	0	0	0	0	501	512	512	509	31	31	
6	0	0	0	0	507	512	511	512	31	31	
7	0	0	0	0	509	514	508	512	31	31	
8	0	0	0	0	503	515	509	508	31	32	
9	0	0	0	0	504	513	508	508	31	31	
10	0	0	0	0	505	510	510	507	31	31	
11	0	0	0	0	507	510	512	510	31	31	
12	0	0	0	0	510	512	515	504	31	31	
13	0	0	0	0	505	514	510	508	31	31	
14	0	0	0	0	504	516	509	506	31	31	
15	0	0	0	0	500	519	511	509	31	31	
0	0	0	0	0	497	519	511	511	31	31	
1	0	0	0	0	497	514	509	512	31	31	
2	0	0	0	0	495	506	504	516	31	32	
3	0	0	0	0	496	496	509	513	31	32	
4	0	0	0	0	495	497	508	511	31	32	
5	0	0	0	0	496	504	511	512	31	32	
6	0	0	0	0	496	508	514	511	31	31	
7	0	0	0	0	492	512	515	510	31	31	
8	0	0	0	0	497	515	513	510	31	31	
9	0	0	0	0	499	514	511	507	31	31	
10	0	0	0	0	504	512	509	509	31	32	
11	0	0	0	0	504	513	513	510	31	31	
12	0	0	0	0	501	513	512	510	31	32	
13	0	0	0	0	499	516	512	504	31	32	
14	0	0	0	0	498	521	514	506	31	31	
15	0	0	0	0	505	522	512	510	31	31	
0	0	0	0	0	512	518	512	511	31	31	
1	0	0	0	0	511	515	511	509	31	31	
2	0	0	0	0	508	509	511	511	31	31	
3	0	0	0	0	510	512	510	510	31	31	
4	0	0	0	0	514	510	511	512	31	31	
5	0	0	0	0	512	507	511	513	31	32	
6	0	0	0	0	507	507	510	510	31	32	
7	0	0	0	0	510	509	509	513	31	31	
8	0	0	0	0	514	511	507	515	31	31	
9	0	0	0	0	513	508	510	515	31	31	
10	0	0	0	0	508	513	514	512	31	31	
11	0	0	0	0	503	515	513	512	31	32	
12	0	0	0	0	498	515	512	511	31	31	
13	0	0	0	0	495	514	513	499	31	31	
14	0	0	0	0	496	513	515	496	31	31	
15	0	0	0	0	499	513	513	505	31	31	
0	0	0	0	0	498	515	512	511	31	32	
1	0	0	0	0	497	519	511	512	31	32	
2	0	0	0	0	499	522	510	513	31	31	
3	0	0	0	0	499	518	508	510	31	31	
4	0	0	0	0	498	515	510	510	31	31	
5	0	0	0	0	505	511	510	508	31	31	
6	0	0	0	0	502	506	515	511	31	31	
7	0	0	0	0	498	507	514	512	31	31	
8	0	0	0	0	497	510	513	512	31	31	
9	0	0	0	0	496	506	510	512	31	31	
10	0	0	0	0	499	503	508	511	31	31	
11	0	0	0	0	502	501	508	514	31	32	
12	0	0	0	0	507	505	508	513	31	31	
13	0	0	0	0	507	512	515	511	31	31	
14	0	0	0	0	503	511	515	501	31	31	
15	0	0	0	0	500	512	510	508	31	31	
0	0	0	0	0	500	518	512	510	31	31	
1	0	0	0	0	500	520	508	510	31	31	
2	0	0	0	0	500	516	509	512	31	32	
3	0	0	0	0	505	513	511	514	31	32	
4	0	0	0	0	506	515	511	508	31	31	
5	0	0	0	0	504	516	510	505	31	31	
6	0	0	0	0	499	518	514	507	31	31	
7	0	0	0	0	499	521	511	512	31	31	
8	0	0	0	0	502	519	508	513	31	31	
9	0	0	0	0	504	513	508	513	31	31	
10	0	0	0	0	510	505	512	507	31	32	
11	0	0	0	0	510	499	513	505	31	32	
12	0	0	0	0	507	507	510	508	31	32	
13	0	0	0	0	510	513	508	510	31	32	
14	0	0	0	0	508	516	510	514	31	31	
15	0	0	0	0	513	519	516	514	31	31	
0	0	0	0	0	510	518	514	512	31	32	
1	0	0	0	0	503	515	511	513	31	31	
2	0	0	0	0	504	513	512	512	31	31	
3	0	0	0	0	503	503	513	507	31	31	
4	0	0	0	0	499	508	515	503	31	31	
5	0	0	0	0	503	513	511	507	31	32	
6	0	0	0	0	499	512	511	508	31	31	
7	0	0	0	0	497	510	511	511	31	31	
8	0	0	0	0	499	505	513	511	31	32	
9	0	0	0	0	501	508	511	512	31	31	
10	0	0	0	0	504	502	513	511	31	31	
11	0	0	0	0	505	504	510	512	31	32	
12	0	0	0	0	505	510	510	508	31	32	
13	0	0	0	0	507	513	510	510	31	31	
14	0	0	0	0	507	515	507	510	31	31	
15	0	0	0	0	501	516	511	509	31	31	
0	0	0	0	0	496	516	513	510	31	31	
1	0	0	0	0	496	510	510	514	31	31	
2	0	0	0	0	502	512	509	511	31	31	
3	0	0	0	0	499	515	509	507	31	31	
4	0	0	0	0	501	512	512	507	31	31	
5	0	0	0	0	500	512	512	511	31	31	
6	0	0	0	0	502	508	511	512	31	31	
7	0	0	0	0	510	512	512	508	31	31	
8	0	0	0	0	508	520	512	512	31	31	
9	0	0	0	0	509	524	511	512	31	31	
10	0	0	0	0	500	521	510	512	31	32	
11	0	0	0	0	489	512	508	514	31	32	
12	0	0	0	0	499	510	512	511	31	32	
13	0	0	0	0	504	510	513	507	31	32	
14	0	0	0	0	511	508	514	512	31	32	
15	0	0	0	0	508	509	513	513	31	32	
0	0	0	0	0	504	512	512	510	31	32	
1	0	0	0	0	505	513	515	508	31	31	
2	0	0	0	0	509	515	516	504	31	31	
3	0	0	0	0	513	515	515	510	31	31	
4	0	0	0	0	507	512	513	511	31	31	
5	0	0	0	0	508	509	513	510	31	31	
6	0	0	0	0	508	520	511	508	31	31	
7	0	0	0	0	505	521	510	509	31	31	
8	0	0	0	0	505	514	510	510	31	31	
9	0	0	0	0	504	510	510	510	31	31	
10	0	0	0	0	505	512	512	513	31	32	
11	0	0	0	0	506	505	512	511	31	31	
12	0	0	0	0	510	501	512	512	31	31	
13	0	0	0	0	509	508	511	510	31	32	
14	0	0	0	0	504	520	514	514	31	31	
15	0	0	0	0	505	528	512	514	31	32	
0	0	0	0	0	503	532	513	509	31	31	
1	0	0	0	0	502	521	513	510	31	31	
2	0	0	0	0	503	510	513	509	31	31	
3	0	0	0	0	501	504	508	510	31	31	
4	0	0	0	0	510	494	510	511	31	31	
5	0	0	0	0	515	482	512	512	31	31	
6	0	0	0	0	519	487	512	512	31	32	
7	0	0	0	0	517	496	511	506	31	32	
8	0	0	0	0	509	508	513	510	31	32	
9	0	0	0	0	508	511	511	509	31	32	
10	0	0	0	0	508	515	510	510	31	31	
11	0	0	0	0	506	519	515	508	31	32	
12	0	0	0	0	505	519	518	507	31	31	
13	0	0	0	0	500	524	513	505	31	31	
14	0	0	0	0	502	526	515	507	31	31	
15	0	0	0	0	504	519	511	510	31	32	
0	0	0	0	0	504	516	508	513	31	32	
1	0	0	0	0	498	509	508	511	31	32	
2	0	0	0	0	494	511	511	512	31	32	
3	0	0	0	0	496	515	514	511	31	32	
4	0	0	0	0	502	523	512	514	31	31	
5	0	0	0	0	502	525	515	507	31	31	
6	0	0	0	0	498	517	513	507	31	31	
7	0	0	0	0	496	511	510	509	31	31	
8	0	0	0	0	502	514	510	505	31	31	
9	0	0	0	0	504	515	511	511	31	32	
10	0	0	0	0	499	519	511	512	31	32	
11	0	0	0	0	506	523	509	511	31	32	
12	0	0	0	0	510	516	510	509	31	31	
13	0	0	0	0	517	512	511	509	31	31	
14	0	0	0	0	519	508	511	513	31	32	
15	0	0	0	0	513	497	513	512	31	31	
0	0	0	0	0	505	484	513	509	31	31	
1	0	0	0	0	498	487	509	512	31	31	
2	0	0	0	0	501	496	508	512	31	32	
3	0	0	0	0	504	503	509	511	31	31	
4	0	0	0	0	507	510	509	515	31	32	
5	0	0	0	0	511	516	513	510	31	31	
6	0	0	0	0	512	520	513	502	31	31	
7	0	0	0	0	508	524	511	507	31	31	
8	0	0	0	0	507	523	511	512	31	31	
9	0	0	0	0	502	521	509	513	31	31	
10	0	0	0	0	500	516	512	508	31	31	
11	0	0	0	0	499	515	510	509	31	31	
12	0	0	0	0	499	516	511	510	31	31	
13	0	0	0	0	501	516	508	511	31	31	
14	0	0	0	0	500	516	512	510	31	31	
15	0	0	0	0	504	517	518	510	31	31	
0	0	0	0	0	499	527	515	507	31	31	
1	0	0	0	0	499	535	512	508	31	31	
2	0	0	0	0	499	528	506	515	31	32	
3	0	0	0	0	499	515	510	515	31	32	
4	0	0	0	0	497	504	512	511	31	32	
5	0	0	0	0	504	496	510	511	31	32	
6	0	0	0	0	508	489	512	512	31	32	
7	0	0	0	0	514	487	513	510	31	32	
8	0	0	0	0	515	492	510	509	31	31	
9	0	0	0	0	511	504	511	506	31	31	
10	0	0	0	0	511	508	512	505	31	31	
11	0	0	0	0	508	510	513	509	31	31	
12	0	0	0	0	505	513	510	512	31	31	
13	0	0	0	0	502	514	513	512	31	31	
14	0	0	0	0	502	522	511	511	31	31	
15	0	0	0	0	500	522	510	510	31	31	
0	0	0	0	0	498	519	510	512	31	31	
1	0	0	0	0	498	512	513	509	31	31	
2	0	0	0	0	500	512	512	511	31	31	
3	0	0	0	0	505	510	512	510	31	31	
4	0	0	0	0	507	514	512	509	31	31	
5	0	0	0	0	510	520	514	508	31	31	
6	0	0	0	0	505	521	513	508	31	32	
7	0	0	0	0	499	516	511	509	31	32	
8	0	0	0	0	497	514	508	514	31	32	
9	0	0	0	0	498	521	508	514	31	31	
10	0	0	0	0	501	524	511	509	31	31	
11	0	0	0	0	503	519	508	510	31	32	
12	0	0	0	0	497	513	509	509	31	31	
13	0	0	0	0	494	509	511	506	31	31	
14	0	0	0	0	503	510	512	509	31	31	
15	0	0	0	0	501	510	515	513	31	31	
0	0	0	0	0	501	506	511	510	31	31	
1	0	0	0	0	503	503	512	512	31	32	
2	0	0	0	0	499	498	514	510	31	32	
3	0	0	0	0	500	502	511	507	31	32	
4	0	0	0	0	510	504	508	508	31	31	
5	0	0	0	0	508	511	512	507	31	31	
6	0	0	0	0	496	508	513	502	31	31	
7	0	0	0	0	496	507	512	507	31	31	
8	0	0	0	0	506	509	513	511	31	32	
9	0	0	0	0	519	513	513	511	31	32	
10	0	0	0	0	526	518	508	515	31	32	
11	0	0	0	0	521	521	511	514	31	32	
12	0	0	0	0	513	522	510	513	31	32	
13	0	0	0	0	504	522	513	513	31	31	
14	0	0	0	0	506	517	511	513	31	31	
15	0	0	0	0	508	516	515	514	31	31	
0	0	0	0	0	504	513	515	507	31	31	
1	0	0	0	0	503	514	513	511	31	32	
2	0	0	0	0	500	512	512	511	31	32	
3	0	0	0	0	497	506	510	512	31	32	
4	0	0	0	0	495	509	512	512	31	31	
5	0	0	0	0	499	513	512	512	31	31	
6	0	0	0	0	499	513	510	508	31	31	
7	0	0	0	0	497	512	512	504	31	32	
8	0	0	0	0	492	510	511	504	31	31	
9	0	0	0	0	491	509	509	509	31	31	
10	0	0	0	0	495	510	510	510	31	32	
11	0	0	0	0	497	515	511	511	31	32	
12	0	0	0	0	504	518	511	508	31	32	
13	0	0	0	0	510	513	510	513	31	31	
14	0	0	0	0	511	505	511	514	31	31	
15	0	0	0	0	511	504	512	513	31	31	
0	0	0	0	0	512	512	512	502	31	31	
1	0	0	0	0	511	518	514	507	31	31	
2	0	0	0	0	516	520	516	506	31	31	
3	0	0	0	0	518	515	512	508	31	31	
4	0	0	0	0	505	507	510	511	31	32	
5	0	0	0	0	498	500	509	515	31	31	
6	0	0	0	0	497	505	509	512	31	31	
7	0	0	0	0	494	510	510	511	31	32	
8	0	0	0	0	492	516	510	510	31	32	
9	0	0	0	0	502	513	512	511	31	31	
10	0	0	0	0	505	510	513	511	31	31	
11	0	0	0	0	508	510	512	511	31	32	
12	0	0	0	0	506	519	513	510	31	32	
13	0	0	0	0	508	521	510	508	31	32	
14	0	0	0	0	507	521	510	510	31	31	
15	0	0	0	0	503	520	511	512	31	31	
0	0	0	0	0	507	515	510	511	31	31	
1	0	0	0	0	506	513	510	511	31	31	
2	0	0	0	0	506	510	510	510	31	31	
3	0	0	0	0	499	504	510	510	31	31	
4	0	0	0	0	494	499	508	510	31	32	
5	0	0	0	0	495	508	512	508	31	32	
6	0	0	0	0	504	511	513	508	31	32	
7	0	0	0	0	511	519	512	509	31	32	
8	0	0	0	0	512	524	512	511	31	32	
9	0	0	0	0	500	522	511	510	31	31	
10	0	0	0	0	494	512	512	512	31	31	
11	0	0	0	0	497	508	512	510	31	31	
12	0	0	0	0	501	503	513	510	31	31	
13	0	0	0	0	506	505	513	510	31	31	
14	0	0	0	0	504	507	512	511	31	31	
15	0	0	0	0	503	511	510	512	31	31	
0	0	0	0	0	499	504	511	514	31	31	
1	0	0	0	0	500	502	508	511	31	32	
2	0	0	0	0	502	506	507	513	31	32	
3	0	0	0	0	500	519	510	511	31	32	
4	0	0	0	0	501	523	511	507	31	32	
5	0	0	0	0	499	519	513	507	31	32	
6	0	0	0	0	500	516	511	507	31	32	
7	0	0	0	0	497	512	512	510	31	32	
8	0	0	0	0	504	509	511	512	31	32	
9	0	0	0	0	507	508	511	511	31	33	
10	0	0	0	0	514	510	513	508	31	32	
11	0	0	0	0	503	512	511	504	31	31	
12	0	0	0	0	499	515	512	508	31	31	
13	0	0	0	0	502	518	511	512	31	30	
14	0	0	0	0	510	517	508	511	31	30	
15	0	0	0	0	513	515	510	510	31	30	
0	0	0	0	0	515	511	509	510	31	32	
1	0	0	0	0	518	514	509	510	31	33	
2	0	0	0	0	511	509	506	519	31	33	
3	0	0	0	0	497	517	512	519	31	32	
4	0	0	0	0	499	521	519	507	31	31	
5	0	0	0	0	498	515	516	503	31	30	
