# OpenSignals Text File Format. Version 1
# {"20:19:07:00:80:4C": {"position": 0, "device": "bitalino_rev", "device name": "20:19:07:00:80:4C", "device connection": "BTH20:19:07:00:80:4C", "sampling rate": 1000, "resolution": [4, 1, 1, 1, 1, 10, 10, 10, 10, 6, 6], "firmware version": 1282, "comments": "", "keywords": "", "mode": 0, "sync interval": 2, "date": "2022-4-1", "time": "15:46:15.136", "channels": [1, 2, 3, 4, 5, 6], "sensor": ["RAW", "RAW", "RAW", "RAW", "RAW", "RAW"], "label": ["A1", "A2", "A3", "A4", "A5", "A6"], "column": ["nSeq", "I1", "I2", "O1", "O2", "A1", "A2", "A3", "A4", "A5", "A6"], "special": [{}, {}, {}, {}, {}, {}], "digital IO": [0, 0, 1, 1]}}
# EndOfHeader
0	0	0	0	0	501	511	511	511	31	31	
1	0	0	0	0	500	511	510	511	31	31	
2	0	0	0	0	503	511	506	509	31	31	
3	0	0	0	0	504	510	508	511	31	31	
4	0	0	0	0	505	510	503	510	31	31	
5	0	0	0	0	503	511	502	510	31	31	
6	0	0	0	0	504	512	500	511	31	32	
7	0	0	0	0	503	512	509	513	31	32	
8	0	0	0	0	505	511	502	508	31	32	
9	0	0	0	0	505	513	504	507	31	31	
10	0	0	0	0	505	512	508	511	31	32	
11	0	0	0	0	504	513	504	511	31	31	
12	0	0	0	0	505	515	518	508	31	31	
13	0	0	0	0	503	514	517	508	31	32	
14	0	0	0	0	504	514	514	512	31	31	
15	0	0	0	0	504	514	526	511	31	31	
0	0	0	0	0	505	511	508	510	31	31	
1	0	0	0	0	504	511	510	510	31	31	
2	0	0	0	0	500	511	514	509	31	31	
3	0	0	0	0	500	511	507	511	31	31	
4	0	0	0	0	502	510	502	509	31	31	
5	0	0	0	0	502	513	506	510	31	31	
6	0	0	0	0	502	513	508	510	31	31	
7	0	0	0	0	502	512	505	510	31	31	
8	0	0	0	0	504	513	501	509	31	31	
9	0	0	0	0	505	510	513	511	31	31	
10	0	0	0	0	504	512	511	509	31	31	
11	0	0	0	0	500	512	512	510	31	32	
12	0	0	0	0	503	514	505	509	31	32	
13	0	0	0	0	504	513	515	510	31	31	
14	0	0	0	0	507	515	526	511	31	31	
15	0	0	0	0	505	514	527	510	31	31	
0	0	0	0	0	506	513	512	512	31	31	
1	0	0	0	0	506	513	507	512	31	31	
2	0	0	0	0	503	511	501	508	31	31	
3	0	0	0	0	507	512	503	510	31	31	
4	0	0	0	0	506	517	511	508	31	31	
5	0	0	0	0	505	514	512	510	31	32	
6	0	0	0	0	504	513	517	510	31	31	
7	0	0	0	0	502	512	513	510	31	31	
8	0	0	0	0	500	511	500	509	31	31	
9	0	0	0	0	500	512	504	510	31	31	
10	0	0	0	0	501	513	508	514	31	31	
11	0	0	0	0	503	509	505	513	31	31	
12	0	0	0	0	500	509	510	511	31	31	
13	0	0	0	0	502	513	512	511	31	31	
14	0	0	0	0	503	511	508	511	31	32	
15	0	0	0	0	507	508	510	508	31	31	
0	0	0	0	0	505	511	510	505	31	31	
1	0	0	0	0	506	513	505	509	31	31	
2	0	0	0	0	505	511	506	510	31	31	
3	0	0	0	0	505	513	507	508	31	31	
4	0	0	0	0	504	514	510	512	31	31	
5	0	0	0	0	505	510	504	510	31	31	
6	0	0	0	0	504	515	506	510	31	31	
7	0	0	0	0	504	513	509	510	31	31	
8	0	0	0	0	502	513	507	512	31	31	
9	0	0	0	0	503	511	511	512	31	32	
10	0	0	0	0	503	512	510	511	31	31	
11	0	0	0	0	505	512	508	510	31	32	
12	0	0	0	0	504	513	511	511	31	31	
13	0	0	0	0	503	514	506	511	31	31	
14	0	0	0	0	504	512	514	509	31	31	
15	0	0	0	0	502	512	515	510	31	31	
0	0	0	0	0	504	512	518	507	31	31	
1	0	0	0	0	502	514	511	510	31	31	
2	0	0	0	0	504	514	511	512	31	32	
3	0	0	0	0	503	512	511	512	31	31	
4	0	0	0	0	502	514	506	511	31	31	
5	0	0	0	0	502	512	505	513	31	31	
6	0	0	0	0	503	511	511	510	31	31	
7	0	0	0	0	502	510	508	511	31	31	
8	0	0	0	0	504	511	503	510	31	31	
9	0	0	0	0	503	511	504	511	31	31	
10	0	0	0	0	504	513	508	512	31	31	
11	0	0	0	0	502	514	517	510	31	32	
12	0	0	0	0	501	512	516	511	31	32	
13	0	0	0	0	503	512	512	513	31	31	
14	0	0	0	0	504	512	519	507	31	31	
15	0	0	0	0	505	512	504	507	31	31	
0	0	0	0	0	505	512	500	508	31	31	
1	0	0	0	0	504	512	513	510	31	31	
2	0	0	0	0	505	512	512	509	31	32	
3	0	0	0	0	505	513	514	508	31	31	
4	0	0	0	0	504	515	519	510	31	32	
5	0	0	0	0	504	510	512	511	31	31	
6	0	0	0	0	500	510	511	511	31	31	
7	0	0	0	0	503	511	512	511	31	31	
8	0	0	0	0	504	511	503	510	31	31	
9	0	0	0	0	508	513	502	506	31	31	
10	0	0	0	0	508	513	508	508	31	31	
11	0	0	0	0	505	515	501	512	31	31	
12	0	0	0	0	508	517	511	514	31	32	
13	0	0	0	0	505	514	504	509	31	32	
14	0	0	0	0	502	511	505	509	31	31	
15	0	0	0	0	504	514	507	512	31	32	
0	0	0	0	0	502	515	507	509	31	31	
1	0	0	0	0	501	513	508	510	31	31	
2	0	0	0	0	504	511	511	509	31	31	
3	0	0	0	0	501	510	517	511	31	31	
4	0	0	0	0	502	510	510	509	31	31	
5	0	0	0	0	504	510	509	509	31	32	
6	0	0	0	0	505	512	512	510	31	32	
7	0	0	0	0	503	510	510	511	31	32	
8	0	0	0	0	503	511	514	509	31	32	
9	0	0	0	0	505	512	505	511	31	31	
10	0	0	0	0	507	514	504	511	31	31	
11	0	0	0	0	506	513	505	511	31	31	
12	0	0	0	0	503	515	503	512	31	32	
13	0	0	0	0	500	516	501	512	31	31	
14	0	0	0	0	500	515	498	510	31	31	
15	0	0	0	0	502	513	514	507	31	31	
0	0	0	0	0	504	514	514	506	31	31	
1	0	0	0	0	500	512	516	509	31	31	
2	0	0	0	0	504	512	519	511	31	31	
3	0	0	0	0	504	510	511	514	31	31	
4	0	0	0	0	504	510	512	509	31	31	
5	0	0	0	0	507	509	512	507	31	31	
6	0	0	0	0	506	511	504	505	31	31	
7	0	0	0	0	505	512	505	510	31	31	
8	0	0	0	0	503	511	510	509	31	31	
9	0	0	0	0	502	512	512	512	31	31	
10	0	0	0	0	503	512	511	508	31	32	
11	0	0	0	0	503	513	509	510	31	31	
12	0	0	0	0	502	513	508	511	31	32	
13	0	0	0	0	502	512	506	510	31	32	
14	0	0	0	0	500	511	509	513	31	32	
15	0	0	0	0	505	515	512	512	31	31	
0	0	0	0	0	505	512	509	508	31	32	
1	0	0	0	0	506	511	515	508	31	31	
2	0	0	0	0	503	513	514	511	31	32	
3	0	0	0	0	505	512	521	511	31	32	
4	0	0	0	0	502	514	515	509	31	32	
5	0	0	0	0	503	512	504	512	31	31	
6	0	0	0	0	500	512	510	510	31	31	
7	0	0	0	0	501	511	504	510	31	31	
8	0	0	0	0	501	513	504	513	31	31	
9	0	0	0	0	503	515	509	510	31	31	
10	0	0	0	0	504	513	502	508	31	31	
11	0	0	0	0	504	512	498	511	31	31	
12	0	0	0	0	505	512	503	510	31	31	
13	0	0	0	0	507	513	512	512	31	31	
14	0	0	0	0	504	512	523	510	31	32	
15	0	0	0	0	505	511	510	510	31	31	
0	0	0	0	0	502	510	512	511	31	32	
1	0	0	0	0	503	512	512	512	31	31	
2	0	0	0	0	501	512	519	510	31	32	
3	0	0	0	0	504	510	518	510	31	32	
4	0	0	0	0	502	508	506	508	31	31	
5	0	0	0	0	502	509	504	509	31	31	
6	0	0	0	0	504	508	506	511	31	31	
7	0	0	0	0	504	510	505	510	31	31	
8	0	0	0	0	507	510	496	511	31	32	
9	0	0	0	0	504	512	492	510	31	31	
10	0	0	0	0	504	513	495	509	31	31	
11	0	0	0	0	504	512	508	512	31	31	
12	0	0	0	0	504	514	511	513	31	32	
13	0	0	0	0	505	516	505	511	31	31	
14	0	0	0	0	504	515	508	508	31	31	
15	0	0	0	0	504	513	512	508	31	31	
0	0	0	0	0	507	512	512	510	31	31	
1	0	0	0	0	505	514	508	510	31	31	
2	0	0	0	0	504	515	517	508	31	32	
3	0	0	0	0	504	514	510	508	31	31	
4	0	0	0	0	504	512	516	510	31	31	
5	0	0	0	0	504	511	513	510	31	31	
6	0	0	0	0	507	512	518	512	31	31	
7	0	0	0	0	503	512	519	512	31	31	
8	0	0	0	0	500	512	515	509	31	32	
9	0	0	0	0	500	515	505	511	31	32	
10	0	0	0	0	500	511	501	510	31	32	
11	0	0	0	0	503	512	510	510	31	31	
12	0	0	0	0	502	510	505	507	31	31	
13	0	0	0	0	503	511	504	511	31	31	
14	0	0	0	0	504	512	510	508	31	31	
15	0	0	0	0	502	511	505	513	31	31	
0	0	0	0	0	502	511	512	510	31	31	
1	0	0	0	0	504	513	514	510	31	31	
2	0	0	0	0	505	511	512	511	31	31	
3	0	0	0	0	506	512	509	512	31	31	
4	0	0	0	0	505	512	518	509	31	32	
5	0	0	0	0	504	513	519	505	31	32	
6	0	0	0	0	503	512	515	507	31	32	
7	0	0	0	0	503	511	506	512	31	32	
8	0	0	0	0	503	512	508	514	31	31	
9	0	0	0	0	504	512	508	510	31	31	
10	0	0	0	0	505	512	505	509	31	31	
11	0	0	0	0	503	513	505	508	31	31	
12	0	0	0	0	503	511	505	509	31	31	
13	0	0	0	0	504	513	508	509	31	31	
14	0	0	0	0	505	512	502	513	31	31	
15	0	0	0	0	507	513	500	510	31	31	
0	0	0	0	0	503	516	503	509	31	32	
1	0	0	0	0	500	515	497	510	31	31	
2	0	0	0	0	504	514	513	510	31	31	
3	0	0	0	0	505	512	511	509	31	31	
4	0	0	0	0	504	513	513	510	31	31	
5	0	0	0	0	501	512	525	511	31	31	
6	0	0	0	0	505	511	526	508	31	31	
7	0	0	0	0	504	512	515	510	31	31	
8	0	0	0	0	503	513	514	510	31	31	
9	0	0	0	0	503	512	508	509	31	31	
10	0	0	0	0	504	513	504	509	31	31	
11	0	0	0	0	503	513	502	510	31	31	
12	0	0	0	0	505	511	507	511	31	31	
13	0	0	0	0	503	512	508	511	31	31	
14	0	0	0	0	500	512	504	511	31	31	
15	0	0	0	0	501	512	506	512	31	31	
0	0	0	0	0	500	512	508	509	31	31	
1	0	0	0	0	503	511	504	508	31	31	
2	0	0	0	0	504	510	500	510	31	31	
3	0	0	0	0	503	512	510	512	31	31	
4	0	0	0	0	503	512	510	509	31	31	
5	0	0	0	0	503	509	507	512	31	31	
6	0	0	0	0	503	508	513	511	31	31	
7	0	0	0	0	504	510	516	511	31	31	
8	0	0	0	0	507	511	507	506	31	32	
9	0	0	0	0	504	511	507	511	31	31	
10	0	0	0	0	507	515	513	512	31	31	
11	0	0	0	0	504	516	510	512	31	32	
12	0	0	0	0	502	515	513	513	31	31	
13	0	0	0	0	502	515	509	508	31	31	
14	0	0	0	0	503	514	505	510	31	32	
15	0	0	0	0	502	512	507	510	31	31	
0	0	0	0	0	500	508	505	511	31	32	
1	0	0	0	0	501	511	505	511	31	31	
2	0	0	0	0	504	512	512	507	31	31	
3	0	0	0	0	504	511	517	506	31	31	
4	0	0	0	0	504	513	507	509	31	31	
5	0	0	0	0	504	513	499	511	31	31	
6	0	0	0	0	505	513	514	509	31	31	
7	0	0	0	0	508	512	515	512	31	31	
8	0	0	0	0	505	509	508	512	31	32	
9	0	0	0	0	505	510	513	509	31	31	
10	0	0	0	0	505	512	511	510	31	31	
11	0	0	0	0	504	513	505	509	31	31	
12	0	0	0	0	505	515	507	510	31	31	
13	0	0	0	0	505	514	511	508	31	31	
14	0	0	0	0	503	511	510	508	31	31	
15	0	0	0	0	504	512	511	512	31	31	
0	0	0	0	0	502	512	515	511	31	31	
1	0	0	0	0	505	515	513	510	31	32	
2	0	0	0	0	503	515	509	511	31	31	
3	0	0	0	0	503	517	505	513	31	31	
4	0	0	0	0	503	514	502	511	31	31	
5	0	0	0	0	505	516	510	511	31	32	
6	0	0	0	0	503	514	515	508	31	32	
7	0	0	0	0	504	513	524	509	31	31	
8	0	0	0	0	504	509	524	511	31	31	
9	0	0	0	0	502	506	504	511	31	31	
10	0	0	0	0	501	508	506	510	31	31	
11	0	0	0	0	502	506	499	506	31	32	
12	0	0	0	0	504	510	503	506	31	32	
13	0	0	0	0	504	509	503	508	31	31	
14	0	0	0	0	505	512	512	512	31	31	
15	0	0	0	0	504	511	511	512	31	31	
0	0	0	0	0	506	511	513	511	31	31	
1	0	0	0	0	507	514	505	510	31	32	
2	0	0	0	0	504	512	500	509	31	31	
3	0	0	0	0	503	514	504	509	31	31	
4	0	0	0	0	502	513	506	508	31	31	
5	0	0	0	0	502	515	514	511	31	31	
6	0	0	0	0	504	514	515	513	31	31	
7	0	0	0	0	503	514	515	511	31	31	
8	0	0	0	0	505	510	518	510	31	31	
9	0	0	0	0	504	511	523	513	31	31	
10	0	0	0	0	504	513	512	510	31	31	
11	0	0	0	0	503	513	509	510	31	31	
12	0	0	0	0	501	513	510	511	31	31	
13	0	0	0	0	504	512	507	511	31	31	
14	0	0	0	0	504	513	514	511	31	31	
15	0	0	0	0	503	515	506	511	31	31	
0	0	0	0	0	505	514	508	511	31	32	
1	0	0	0	0	503	514	505	509	31	31	
2	0	0	0	0	503	511	503	509	31	31	
3	0	0	0	0	503	510	504	509	31	31	
4	0	0	0	0	504	513	504	510	31	31	
5	0	0	0	0	504	514	513	510	31	32	
6	0	0	0	0	504	514	515	510	31	32	
7	0	0	0	0	504	513	512	511	31	31	
8	0	0	0	0	503	513	510	508	31	31	
9	0	0	0	0	505	511	511	511	31	31	
10	0	0	0	0	504	508	511	511	31	31	
11	0	0	0	0	502	507	503	509	31	31	
12	0	0	0	0	504	510	514	515	31	31	
13	0	0	0	0	503	511	511	513	31	31	
14	0	0	0	0	503	511	507	508	31	32	
15	0	0	0	0	502	510	511	506	31	31	
0	0	0	0	0	504	513	513	509	31	31	
1	0	0	0	0	505	513	500	510	31	31	
2	0	0	0	0	503	516	501	513	31	31	
3	0	0	0	0	502	515	501	512	31	31	
4	0	0	0	0	502	514	501	510	31	31	
5	0	0	0	0	506	515	507	505	31	32	
6	0	0	0	0	503	512	505	508	31	31	
7	0	0	0	0	503	512	512	510	31	32	
8	0	0	0	0	504	509	511	510	31	32	
9	0	0	0	0	505	510	521	512	31	31	
10	0	0	0	0	504	512	521	512	31	32	
11	0	0	0	0	504	512	515	510	31	31	
12	0	0	0	0	507	513	518	505	31	31	
13	0	0	0	0	504	513	515	511	31	31	
14	0	0	0	0	504	513	511	513	31	31	
15	0	0	0	0	504	512	506	511	31	32	
0	0	0	0	0	504	511	504	512	31	31	
1	0	0	0	0	504	511	516	512	31	32	
2	0	0	0	0	505	511	516	510	31	32	
3	0	0	0	0	504	514	507	511	31	32	
4	0	0	0	0	503	513	508	508	31	31	
5	0	0	0	0	502	512	506	510	31	31	
6	0	0	0	0	502	511	511	512	31	31	
7	0	0	0	0	503	512	515	510	31	31	
8	0	0	0	0	502	513	511	509	31	31	
9	0	0	0	0	503	514	507	507	31	31	
10	0	0	0	0	501	514	509	511	31	31	
11	0	0	0	0	503	513	507	512	31	32	
12	0	0	0	0	504	515	508	510	31	31	
13	0	0	0	0	503	516	513	512	31	31	
14	0	0	0	0	504	513	507	510	31	31	
15	0	0	0	0	505	511	504	508	31	32	
0	0	0	0	0	505	511	502	511	31	31	
1	0	0	0	0	504	511	516	511	31	31	
2	0	0	0	0	503	509	516	511	31	31	
3	0	0	0	0	503	510	515	508	31	31	
4	0	0	0	0	504	512	519	509	31	31	
5	0	0	0	0	504	510	505	511	31	31	
6	0	0	0	0	504	511	508	511	31	31	
7	0	0	0	0	504	510	511	508	31	31	
8	0	0	0	0	505	513	514	512	31	31	
9	0	0	0	0	502	513	503	510	31	31	
10	0	0	0	0	503	515	509	509	31	31	
11	0	0	0	0	503	515	509	511	31	31	
12	0	0	0	0	502	515	501	510	31	31	
13	0	0	0	0	502	513	503	510	31	31	
14	0	0	0	0	502	513	504	511	31	31	
15	0	0	0	0	502	511	504	510	31	32	
0	0	0	0	0	504	512	509	508	31	31	
1	0	0	0	0	504	510	502	509	31	31	
2	0	0	0	0	503	510	504	511	31	31	
3	0	0	0	0	502	509	507	511	31	31	
4	0	0	0	0	503	512	518	510	31	31	
5	0	0	0	0	501	511	513	508	31	31	
6	0	0	0	0	504	515	507	511	31	31	
7	0	0	0	0	502	513	510	512	31	32	
8	0	0	0	0	504	512	513	510	31	32	
9	0	0	0	0	505	513	517	508	31	32	
10	0	0	0	0	504	512	513	510	31	32	
11	0	0	0	0	504	511	518	509	31	32	
12	0	0	0	0	505	511	510	509	31	31	
13	0	0	0	0	508	513	505	510	31	31	
14	0	0	0	0	508	513	505	512	31	31	
15	0	0	0	0	505	514	499	510	31	31	
0	0	0	0	0	504	516	514	508	31	31	
1	0	0	0	0	502	515	511	509	31	31	
2	0	0	0	0	504	515	514	511	31	31	
3	0	0	0	0	505	515	508	511	31	31	
4	0	0	0	0	505	512	500	511	31	31	
5	0	0	0	0	504	513	501	510	31	31	
6	0	0	0	0	502	511	500	508	31	31	
7	0	0	0	0	502	509	510	509	31	31	
8	0	0	0	0	500	508	497	512	31	31	
9	0	0	0	0	499	508	505	510	31	31	
10	0	0	0	0	502	512	516	512	31	31	
11	0	0	0	0	500	511	507	510	31	31	
12	0	0	0	0	502	509	511	509	31	31	
13	0	0	0	0	503	510	519	509	31	31	
14	0	0	0	0	504	510	508	512	31	31	
15	0	0	0	0	505	509	516	513	31	31	
0	0	0	0	0	505	509	508	511	31	31	
1	0	0	0	0	504	513	513	509	31	32	
2	0	0	0	0	503	514	509	507	31	31	
3	0	0	0	0	504	515	511	509	31	31	
4	0	0	0	0	506	515	518	510	31	31	
5	0	0	0	0	505	515	505	511	31	31	
6	0	0	0	0	506	514	504	509	31	31	
7	0	0	0	0	504	511	510	511	31	31	
8	0	0	0	0	505	512	511	511	31	32	
9	0	0	0	0	505	513	511	511	31	31	
10	0	0	0	0	501	512	515	510	31	32	
11	0	0	0	0	503	512	514	510	31	31	
12	0	0	0	0	503	514	518	509	31	32	
13	0	0	0	0	504	515	520	511	31	31	
14	0	0	0	0	502	511	513	508	31	31	
15	0	0	0	0	499	509	507	507	31	31	
0	0	0	0	0	500	508	490	507	31	31	
1	0	0	0	0	501	512	493	512	31	31	
2	0	0	0	0	503	514	507	515	31	32	
3	0	0	0	0	503	515	506	512	31	31	
4	0	0	0	0	504	514	506	509	31	31	
5	0	0	0	0	505	515	513	512	31	31	
6	0	0	0	0	505	516	512	509	31	31	
7	0	0	0	0	504	515	505	509	31	31	
8	0	0	0	0	504	511	512	508	31	31	
9	0	0	0	0	505	510	508	509	31	31	
10	0	0	0	0	505	507	507	508	31	31	
11	0	0	0	0	504	512	511	510	31	31	
12	0	0	0	0	505	511	518	508	31	31	
13	0	0	0	0	506	511	515	510	31	31	
14	0	0	0	0	502	512	513	509	31	31	
15	0	0	0	0	500	511	518	511	31	31	
0	0	0	0	0	502	512	516	509	31	32	
1	0	0	0	0	501	512	520	512	31	31	
2	0	0	0	0	502	511	508	510	31	31	
3	0	0	0	0	503	513	498	511	31	31	
4	0	0	0	0	504	513	503	511	31	31	
5	0	0	0	0	503	514	504	512	31	31	
6	0	0	0	0	502	516	509	511	31	31	
7	0	0	0	0	503	516	507	512	31	31	
8	0	0	0	0	505	519	502	510	31	32	
9	0	0	0	0	504	517	512	510	31	31	
10	0	0	0	0	505	515	506	510	31	31	
11	0	0	0	0	507	512	508	510	31	31	
12	0	0	0	0	506	510	512	509	31	31	
13	0	0	0	0	505	504	514	509	31	32	
14	0	0	0	0	505	506	516	512	31	32	
15	0	0	0	0	503	509	521	510	31	31	
0	0	0	0	0	502	510	512	512	31	31	
1	0	0	0	0	502	518	512	509	31	32	
2	0	0	0	0	504	514	507	508	31	31	
3	0	0	0	0	503	512	518	510	31	31	
4	0	0	0	0	504	513	514	510	31	31	
5	0	0	0	0	504	512	504	507	31	31	
6	0	0	0	0	504	508	510	508	31	31	
7	0	0	0	0	502	504	509	511	31	31	
8	0	0	0	0	502	507	506	509	31	31	
9	0	0	0	0	502	509	506	509	31	31	
10	0	0	0	0	505	513	500	510	31	31	
11	0	0	0	0	503	516	513	511	31	31	
12	0	0	0	0	505	517	513	511	31	31	
13	0	0	0	0	505	518	519	512	31	31	
14	0	0	0	0	504	515	517	512	31	31	
15	0	0	0	0	503	515	509	511	31	31	
0	0	0	0	0	506	516	504	513	31	32	
1	0	0	0	0	502	514	504	511	31	32	
2	0	0	0	0	502	513	507	509	31	32	
3	0	0	0	0	504	510	498	509	31	32	
4	0	0	0	0	504	512	509	511	31	32	
5	0	0	0	0	504	512	507	510	31	32	
6	0	0	0	0	503	515	503	508	31	31	
7	0	0	0	0	501	515	503	511	31	31	
8	0	0	0	0	502	510	513	511	31	31	
9	0	0	0	0	504	511	515	510	31	31	
10	0	0	0	0	505	510	512	511	31	31	
11	0	0	0	0	505	508	505	511	31	31	
12	0	0	0	0	507	510	507	510	31	32	
13	0	0	0	0	505	511	508	511	31	31	
14	0	0	0	0	503	511	517	511	31	31	
15	0	0	0	0	503	513	515	511	31	31	
0	0	0	0	0	502	509	511	511	31	31	
1	0	0	0	0	503	511	508	507	31	31	
2	0	0	0	0	505	512	508	508	31	31	
3	0	0	0	0	504	512	504	509	31	31	
4	0	0	0	0	501	513	504	508	31	31	
5	0	0	0	0	500	515	504	510	31	31	
6	0	0	0	0	501	514	511	510	31	31	
7	0	0	0	0	502	515	515	508	31	31	
8	0	0	0	0	504	512	516	509	31	31	
9	0	0	0	0	504	511	511	508	31	32	
10	0	0	0	0	508	511	507	508	31	32	
11	0	0	0	0	509	510	507	510	31	31	
12	0	0	0	0	507	513	506	511	31	32	
13	0	0	0	0	507	515	516	512	31	31	
14	0	0	0	0	504	519	517	511	31	31	
15	0	0	0	0	504	515	515	510	31	31	
0	0	0	0	0	502	514	508	510	31	31	
1	0	0	0	0	503	513	504	511	31	31	
2	0	0	0	0	502	511	512	509	31	31	
3	0	0	0	0	502	509	521	513	31	31	
4	0	0	0	0	502	509	510	511	31	31	
5	0	0	0	0	503	512	505	512	31	31	
6	0	0	0	0	504	514	512	511	31	31	
7	0	0	0	0	503	514	508	510	31	31	
8	0	0	0	0	504	515	505	509	31	31	
9	0	0	0	0	501	513	501	509	31	31	
10	0	0	0	0	502	511	501	508	31	32	
11	0	0	0	0	503	511	501	511	31	31	
12	0	0	0	0	499	510	501	510	31	31	
13	0	0	0	0	503	510	507	510	31	31	
14	0	0	0	0	503	511	505	507	31	31	
15	0	0	0	0	502	512	517	509	31	31	
0	0	0	0	0	505	509	520	511	31	32	
1	0	0	0	0	507	511	518	509	31	32	
2	0	0	0	0	505	512	513	512	31	31	
3	0	0	0	0	505	510	512	511	31	32	
4	0	0	0	0	505	513	507	511	31	31	
5	0	0	0	0	504	513	508	509	31	32	
6	0	0	0	0	507	513	519	512	31	32	
7	0	0	0	0	503	509	504	510	31	31	
8	0	0	0	0	504	508	512	508	31	31	
9	0	0	0	0	503	507	516	511	31	31	
10	0	0	0	0	505	506	512	509	31	32	
11	0	0	0	0	507	508	510	510	31	31	
12	0	0	0	0	503	511	515	509	31	31	
13	0	0	0	0	502	512	510	512	31	31	
14	0	0	0	0	502	513	508	511	31	31	
15	0	0	0	0	504	514	510	510	31	31	
0	0	0	0	0	503	513	509	511	31	31	
1	0	0	0	0	502	514	507	509	31	31	
2	0	0	0	0	502	512	502	508	31	31	
3	0	0	0	0	500	511	499	510	31	31	
4	0	0	0	0	500	511	500	511	31	31	
5	0	0	0	0	502	515	503	512	31	31	
6	0	0	0	0	502	518	511	511	31	31	
7	0	0	0	0	501	519	519	509	31	31	
8	0	0	0	0	504	518	520	510	31	31	
9	0	0	0	0	504	518	522	510	31	31	
10	0	0	0	0	504	518	507	513	31	31	
11	0	0	0	0	502	515	505	513	31	31	
12	0	0	0	0	504	512	504	512	31	31	
13	0	0	0	0	505	513	505	509	31	31	
14	0	0	0	0	506	515	506	508	31	31	
15	0	0	0	0	505	511	511	512	31	32	
0	0	0	0	0	507	508	515	509	31	31	
1	0	0	0	0	505	509	506	509	31	32	
2	0	0	0	0	504	511	511	512	31	32	
3	0	0	0	0	502	506	508	510	31	31	
4	0	0	0	0	502	508	508	509	31	31	
5	0	0	0	0	502	511	502	510	31	31	
6	0	0	0	0	502	517	508	509	31	31	
7	0	0	0	0	502	518	511	510	31	31	
8	0	0	0	0	503	515	509	511	31	32	
9	0	0	0	0	503	515	517	510	31	32	
10	0	0	0	0	503	510	515	512	31	32	
11	0	0	0	0	504	508	515	508	31	31	
12	0	0	0	0	504	512	510	510	31	31	
13	0	0	0	0	502	513	504	512	31	31	
14	0	0	0	0	503	514	513	510	31	31	
15	0	0	0	0	504	515	515	513	31	31	
0	0	0	0	0	503	511	510	510	31	31	
1	0	0	0	0	505	509	509	505	31	31	
2	0	0	0	0	503	508	507	510	31	32	
3	0	0	0	0	507	507	512	509	31	31	
4	0	0	0	0	506	509	509	510	31	31	
5	0	0	0	0	505	508	496	508	31	32	
6	0	0	0	0	505	502	506	511	31	32	
7	0	0	0	0	504	504	508	512	31	31	
8	0	0	0	0	505	513	503	510	31	32	
9	0	0	0	0	505	518	509	508	31	31	
10	0	0	0	0	505	519	507	510	31	31	
11	0	0	0	0	508	522	513	511	31	31	
12	0	0	0	0	504	520	507	510	31	31	
13	0	0	0	0	502	516	509	511	31	31	
14	0	0	0	0	502	513	508	510	31	31	
15	0	0	0	0	501	513	503	508	31	31	
0	0	0	0	0	502	515	507	509	31	31	
1	0	0	0	0	502	514	507	510	31	32	
2	0	0	0	0	501	513	508	511	31	31	
3	0	0	0	0	502	513	513	510	31	31	
4	0	0	0	0	501	511	511	511	31	31	
5	0	0	0	0	502	510	512	513	31	31	
6	0	0	0	0	501	509	503	513	31	31	
7	0	0	0	0	505	508	511	513	31	31	
8	0	0	0	0	504	511	516	504	31	31	
9	0	0	0	0	502	512	508	507	31	31	
10	0	0	0	0	504	514	506	510	31	31	
11	0	0	0	0	505	512	508	510	31	32	
12	0	0	0	0	505	511	513	508	31	32	
13	0	0	0	0	501	512	508	509	31	31	
14	0	0	0	0	500	513	507	510	31	31	
15	0	0	0	0	499	513	505	512	31	31	
0	0	0	0	0	500	511	508	513	31	31	
1	0	0	0	0	505	510	512	512	31	32	
2	0	0	0	0	505	511	508	511	31	31	
3	0	0	0	0	505	511	516	511	31	31	
4	0	0	0	0	507	509	519	510	31	31	
5	0	0	0	0	507	510	515	509	31	31	
6	0	0	0	0	507	507	511	510	31	31	
7	0	0	0	0	507	504	516	511	31	32	
8	0	0	0	0	504	510	516	511	31	32	
9	0	0	0	0	501	515	515	510	31	31	
10	0	0	0	0	501	520	510	509	31	31	
11	0	0	0	0	504	524	504	508	31	31	
12	0	0	0	0	503	525	501	511	31	32	
13	0	0	0	0	503	516	500	509	31	31	
14	0	0	0	0	501	511	496	506	31	31	
15	0	0	0	0	500	510	507	508	31	32	
0	0	0	0	0	503	510	508	509	31	32	
1	0	0	0	0	507	508	516	512	31	32	
2	0	0	0	0	508	510	511	508	31	31	
3	0	0	0	0	505	513	504	512	31	31	
4	0	0	0	0	503	513	511	512	31	31	
5	0	0	0	0	504	512	507	511	31	31	
6	0	0	0	0	502	511	515	508	31	31	
7	0	0	0	0	503	512	508	511	31	31	
8	0	0	0	0	504	513	508	512	31	31	
9	0	0	0	0	501	512	513	512	31	32	
10	0	0	0	0	505	510	507	512	31	32	
11	0	0	0	0	504	511	507	512	31	31	
12	0	0	0	0	505	509	504	510	31	31	
13	0	0	0	0	503	508	512	511	31	31	
14	0	0	0	0	505	510	506	508	31	31	
15	0	0	0	0	505	511	504	507	31	31	
0	0	0	0	0	503	510	501	508	31	31	
1	0	0	0	0	502	511	515	512	31	32	
2	0	0	0	0	503	510	512	508	31	31	
3	0	0	0	0	500	508	504	510	31	31	
4	0	0	0	0	502	516	512	510	31	31	
5	0	0	0	0	501	519	522	508	31	31	
6	0	0	0	0	502	522	507	507	31	31	
7	0	0	0	0	504	520	513	508	31	31	
8	0	0	0	0	504	515	511	510	31	31	
9	0	0	0	0	504	511	504	510	31	31	
10	0	0	0	0	504	507	506	510	31	32	
11	0	0	0	0	504	507	510	513	31	31	
12	0	0	0	0	504	508	507	510	31	31	
13	0	0	0	0	506	510	512	509	31	31	
14	0	0	0	0	506	510	507	509	31	31	
15	0	0	0	0	506	512	512	511	31	31	
0	0	0	0	0	506	514	499	510	31	31	
1	0	0	0	0	506	512	508	508	31	31	
2	0	0	0	0	506	512	509	510	31	31	
3	0	0	0	0	504	508	519	511	31	31	
4	0	0	0	0	502	511	512	511	31	32	
5	0	0	0	0	500	515	513	510	31	32	
6	0	0	0	0	503	518	513	511	31	31	
7	0	0	0	0	508	516	514	510	31	32	
8	0	0	0	0	504	513	514	510	31	31	
9	0	0	0	0	503	512	509	512	31	32	
10	0	0	0	0	502	513	508	510	31	31	
11	0	0	0	0	502	514	504	509	31	31	
12	0	0	0	0	502	513	511	512	31	31	
13	0	0	0	0	502	513	506	512	31	31	
14	0	0	0	0	504	511	505	512	31	31	
15	0	0	0	0	504	511	505	509	31	31	
0	0	0	0	0	501	509	500	508	31	31	
1	0	0	0	0	502	508	512	511	31	31	
2	0	0	0	0	501	508	515	510	31	31	
3	0	0	0	0	504	510	509	510	31	32	
4	0	0	0	0	504	511	508	511	31	32	
5	0	0	0	0	506	510	506	508	31	31	
6	0	0	0	0	507	510	514	509	31	31	
7	0	0	0	0	504	514	519	510	31	32	
8	0	0	0	0	505	512	511	510	31	31	
9	0	0	0	0	502	511	513	512	31	31	
10	0	0	0	0	503	515	508	511	31	31	
11	0	0	0	0	505	513	503	509	31	31	
12	0	0	0	0	504	513	511	511	31	32	
13	0	0	0	0	502	512	507	512	31	32	
14	0	0	0	0	503	510	512	512	31	31	
15	0	0	0	0	503	511	503	507	31	31	
0	0	0	0	0	502	513	506	508	31	32	
1	0	0	0	0	499	515	508	508	31	32	
2	0	0	0	0	504	515	514	508	31	32	
3	0	0	0	0	505	515	512	509	31	31	
4	0	0	0	0	505	515	508	511	31	32	
5	0	0	0	0	504	516	504	512	31	31	
6	0	0	0	0	505	513	515	512	31	31	
7	0	0	0	0	504	512	521	510	31	31	
8	0	0	0	0	504	510	512	509	31	31	
9	0	0	0	0	505	510	506	508	31	31	
10	0	0	0	0	506	509	504	512	31	31	
11	0	0	0	0	505	508	505	510	31	31	
12	0	0	0	0	504	510	508	512	31	31	
13	0	0	0	0	504	510	510	510	31	31	
14	0	0	0	0	503	514	509	511	31	31	
15	0	0	0	0	500	513	506	513	31	31	
0	0	0	0	0	503	516	510	509	31	32	
1	0	0	0	0	501	515	505	510	31	32	
2	0	0	0	0	501	512	504	508	31	31	
3	0	0	0	0	499	512	503	510	31	31	
4	0	0	0	0	502	513	511	511	31	31	
5	0	0	0	0	502	510	517	510	31	31	
6	0	0	0	0	504	512	507	509	31	31	
7	0	0	0	0	502	511	507	511	31	31	
8	0	0	0	0	506	513	516	512	31	32	
9	0	0	0	0	506	516	511	512	31	31	
10	0	0	0	0	508	515	508	508	31	31	
11	0	0	0	0	505	515	511	510	31	32	
12	0	0	0	0	504	513	512	510	31	31	
13	0	0	0	0	504	512	505	508	31	32	
14	0	0	0	0	505	509	510	510	31	31	
15	0	0	0	0	504	508	512	511	31	31	
0	0	0	0	0	504	512	513	507	31	31	
1	0	0	0	0	503	514	505	510	31	31	
2	0	0	0	0	504	514	508	511	31	31	
3	0	0	0	0	502	519	507	512	31	32	
4	0	0	0	0	504	513	510	508	31	31	
5	0	0	0	0	502	512	512	510	31	32	
6	0	0	0	0	503	511	515	511	31	32	
7	0	0	0	0	504	513	516	512	31	32	
8	0	0	0	0	504	512	515	512	31	31	
9	0	0	0	0	501	512	519	508	31	31	
10	0	0	0	0	502	512	514	507	31	31	
11	0	0	0	0	504	511	521	507	31	32	
12	0	0	0	0	503	512	511	511	31	31	
13	0	0	0	0	502	511	510	512	31	32	
14	0	0	0	0	504	512	503	511	31	32	
15	0	0	0	0	503	504	505	512	31	31	
0	0	0	0	0	503	506	508	511	31	31	
1	0	0	0	0	504	505	509	513	31	31	
2	0	0	0	0	504	510	508	514	31	31	
3	0	0	0	0	505	516	503	507	31	31	
4	0	0	0	0	504	517	502	510	31	31	
5	0	0	0	0	503	515	496	512	31	31	
6	0	0	0	0	505	513	516	511	31	31	
7	0	0	0	0	505	513	513	508	31	31	
8	0	0	0	0	502	514	512	510	31	31	
9	0	0	0	0	500	516	515	508	31	31	
10	0	0	0	0	504	514	515	509	31	32	
11	0	0	0	0	502	514	509	508	31	31	
12	0	0	0	0	502	515	500	513	31	31	
13	0	0	0	0	503	510	504	512	31	31	
14	0	0	0	0	504	507	514	512	31	31	
15	0	0	0	0	507	505	508	510	31	32	
0	0	0	0	0	507	508	503	507	31	31	
1	0	0	0	0	504	511	513	509	31	32	
2	0	0	0	0	506	511	518	511	31	31	
3	0	0	0	0	506	513	517	510	31	32	
4	0	0	0	0	502	515	504	511	31	31	
5	0	0	0	0	503	516	503	514	31	31	
6	0	0	0	0	504	518	502	509	31	31	
7	0	0	0	0	504	514	509	507	31	31	
8	0	0	0	0	503	514	508	508	31	32	
9	0	0	0	0	501	514	503	509	31	31	
10	0	0	0	0	502	512	513	510	31	31	
11	0	0	0	0	501	511	516	509	31	32	
12	0	0	0	0	502	511	511	510	31	31	
13	0	0	0	0	503	514	511	512	31	31	
14	0	0	0	0	503	511	503	512	31	31	
15	0	0	0	0	502	511	502	510	31	31	
0	0	0	0	0	503	512	511	511	31	31	
1	0	0	0	0	506	510	508	510	31	31	
2	0	0	0	0	504	513	510	509	31	31	
3	0	0	0	0	504	514	507	512	31	31	
4	0	0	0	0	503	512	506	510	31	31	
5	0	0	0	0	504	513	508	510	31	31	
6	0	0	0	0	506	510	506	512	31	31	
7	0	0	0	0	505	505	511	509	31	32	
8	0	0	0	0	504	509	507	508	31	31	
9	0	0	0	0	504	515	513	512	31	31	
10	0	0	0	0	503	513	514	511	31	31	
11	0	0	0	0	502	514	512	511	31	31	
12	0	0	0	0	504	515	515	508	31	31	
13	0	0	0	0	504	509	505	510	31	31	
14	0	0	0	0	504	513	509	509	31	31	
15	0	0	0	0	504	512	515	510	31	31	
0	0	0	0	0	505	511	509	509	31	31	
1	0	0	0	0	503	512	506	509	31	31	
2	0	0	0	0	504	510	508	510	31	31	
3	0	0	0	0	504	513	507	508	31	31	
4	0	0	0	0	504	511	513	508	31	31	
5	0	0	0	0	503	511	514	510	31	31	
6	0	0	0	0	501	514	504	511	31	31	
7	0	0	0	0	503	516	505	512	31	32	
8	0	0	0	0	504	516	520	509	31	31	
9	0	0	0	0	506	514	511	510	31	32	
10	0	0	0	0	505	511	512	511	31	31	
11	0	0	0	0	505	509	516	510	31	31	
12	0	0	0	0	503	510	507	511	31	31	
13	0	0	0	0	502	511	508	510	31	32	
14	0	0	0	0	502	512	503	510	31	32	
15	0	0	0	0	502	515	508	512	31	31	
0	0	0	0	0	501	515	507	508	31	31	
1	0	0	0	0	503	512	507	510	31	32	
2	0	0	0	0	504	512	500	511	31	31	
3	0	0	0	0	504	512	497	511	31	31	
4	0	0	0	0	506	516	514	511	31	31	
5	0	0	0	0	505	515	510	509	31	31	
6	0	0	0	0	502	514	510	511	31	31	
7	0	0	0	0	502	512	506	508	31	32	
8	0	0	0	0	503	511	504	509	31	32	
9	0	0	0	0	503	509	508	509	31	31	
10	0	0	0	0	506	510	518	508	31	31	
11	0	0	0	0	505	509	518	510	31	31	
12	0	0	0	0	507	511	513	511	31	31	
13	0	0	0	0	504	510	509	511	31	31	
14	0	0	0	0	502	510	514	510	31	31	
15	0	0	0	0	503	506	509	511	31	32	
0	0	0	0	0	502	512	510	511	31	32	
1	0	0	0	0	504	513	515	511	31	31	
2	0	0	0	0	500	512	515	509	31	31	
3	0	0	0	0	503	512	508	513	31	31	
4	0	0	0	0	504	515	509	512	31	31	
5	0	0	0	0	504	515	503	510	31	31	
6	0	0	0	0	507	520	511	508	31	31	
7	0	0	0	0	508	519	510	511	31	31	
8	0	0	0	0	506	514	504	510	31	31	
9	0	0	0	0	506	512	513	508	31	31	
10	0	0	0	0	504	511	513	507	31	31	
11	0	0	0	0	506	512	513	508	31	31	
12	0	0	0	0	504	511	510	511	31	31	
13	0	0	0	0	503	511	515	512	31	31	
14	0	0	0	0	503	510	513	513	31	31	
15	0	0	0	0	503	509	508	512	31	31	
0	0	0	0	0	502	509	503	511	31	31	
1	0	0	0	0	502	512	509	511	31	31	
2	0	0	0	0	504	512	507	506	31	31	
3	0	0	0	0	504	510	508	512	31	32	
4	0	0	0	0	502	512	508	510	31	32	
5	0	0	0	0	501	512	505	511	31	32	
6	0	0	0	0	505	511	508	510	31	32	
7	0	0	0	0	500	513	506	510	31	32	
8	0	0	0	0	502	512	515	513	31	31	
9	0	0	0	0	502	512	505	510	31	32	
10	0	0	0	0	503	511	510	508	31	31	
11	0	0	0	0	505	512	509	508	31	31	
12	0	0	0	0	505	512	513	508	31	31	
13	0	0	0	0	504	517	512	510	31	31	
14	0	0	0	0	499	515	504	511	31	31	
15	0	0	0	0	500	517	508	512	31	31	
0	0	0	0	0	501	514	508	511	31	31	
1	0	0	0	0	503	511	509	513	31	31	
2	0	0	0	0	504	512	500	510	31	32	
3	0	0	0	0	504	510	499	511	31	31	
4	0	0	0	0	505	508	504	510	31	31	
5	0	0	0	0	504	508	515	509	31	31	
6	0	0	0	0	504	510	510	508	31	31	
7	0	0	0	0	502	509	507	505	31	31	
8	0	0	0	0	507	511	503	508	31	31	
9	0	0	0	0	504	512	513	509	31	31	
10	0	0	0	0	502	515	514	512	31	32	
11	0	0	0	0	505	519	520	511	31	31	
12	0	0	0	0	504	519	509	513	31	31	
13	0	0	0	0	504	515	508	510	31	31	
14	0	0	0	0	504	512	511	511	31	32	
15	0	0	0	0	505	512	519	508	31	32	
0	0	0	0	0	503	509	517	509	31	31	
1	0	0	0	0	504	513	514	510	31	31	
2	0	0	0	0	504	511	508	511	31	31	
3	0	0	0	0	503	511	506	512	31	31	
4	0	0	0	0	503	508	502	511	31	31	
5	0	0	0	0	503	510	503	513	31	32	
6	0	0	0	0	504	512	510	511	31	32	
7	0	0	0	0	501	513	505	509	31	31	
8	0	0	0	0	504	510	512	512	31	31	
9	0	0	0	0	504	510	508	512	31	31	
10	0	0	0	0	502	510	506	511	31	31	
11	0	0	0	0	504	509	513	511	31	31	
12	0	0	0	0	497	503	511	510	31	31	
13	0	0	0	0	500	505	509	504	31	31	
14	0	0	0	0	501	510	513	505	31	31	
15	0	0	0	0	505	516	511	508	31	31	
0	0	0	0	0	503	520	510	512	31	31	
1	0	0	0	0	505	519	510	512	31	31	
2	0	0	0	0	504	519	510	511	31	31	
3	0	0	0	0	504	517	514	504	31	31	
4	0	0	0	0	504	512	503	508	31	31	
5	0	0	0	0	504	510	513	512	31	31	
6	0	0	0	0	505	507	513	510	31	31	
7	0	0	0	0	507	510	512	510	31	31	
8	0	0	0	0	505	507	504	509	31	31	
9	0	0	0	0	503	512	507	512	31	31	
10	0	0	0	0	505	520	510	512	31	31	
11	0	0	0	0	503	519	505	508	31	32	
12	0	0	0	0	501	518	508	509	31	31	
13	0	0	0	0	504	513	504	511	31	31	
14	0	0	0	0	504	509	513	508	31	31	
15	0	0	0	0	505	505	515	508	31	31	
0	0	0	0	0	504	511	511	511	31	31	
1	0	0	0	0	500	512	504	511	31	31	
2	0	0	0	0	502	516	499	511	31	31	
3	0	0	0	0	503	515	507	510	31	31	
4	0	0	0	0	502	517	509	512	31	31	
5	0	0	0	0	503	511	504	510	31	32	
6	0	0	0	0	503	509	500	511	31	32	
7	0	0	0	0	501	507	502	507	31	31	
8	0	0	0	0	502	508	507	512	31	31	
9	0	0	0	0	504	510	514	513	31	31	
10	0	0	0	0	504	514	509	510	31	31	
11	0	0	0	0	506	514	516	511	31	31	
12	0	0	0	0	506	516	516	512	31	31	
13	0	0	0	0	506	515	518	510	31	31	
14	0	0	0	0	506	515	515	511	31	31	
15	0	0	0	0	504	513	506	509	31	31	
0	0	0	0	0	503	507	505	508	31	31	
1	0	0	0	0	504	508	511	512	31	31	
2	0	0	0	0	504	511	515	511	31	31	
3	0	0	0	0	504	513	510	509	31	32	
4	0	0	0	0	505	512	510	510	31	32	
5	0	0	0	0	503	515	504	509	31	31	
6	0	0	0	0	501	510	506	510	31	31	
7	0	0	0	0	504	511	496	510	31	31	
8	0	0	0	0	504	510	502	511	31	31	
9	0	0	0	0	504	512	502	513	31	31	
10	0	0	0	0	503	514	509	512	31	31	
11	0	0	0	0	503	516	505	510	31	31	
12	0	0	0	0	503	515	514	512	31	31	
13	0	0	0	0	504	515	517	509	31	31	
14	0	0	0	0	504	515	512	513	31	31	
15	0	0	0	0	505	513	518	511	31	31	
0	0	0	0	0	508	507	521	511	31	32	
1	0	0	0	0	504	508	510	510	31	31	
2	0	0	0	0	505	512	520	510	31	31	
3	0	0	0	0	502	512	504	508	31	31	
4	0	0	0	0	504	515	509	510	31	31	
5	0	0	0	0	504	511	513	512	31	32	
6	0	0	0	0	501	508	508	511	31	31	
7	0	0	0	0	504	508	507	511	31	31	
8	0	0	0	0	504	508	504	511	31	31	
9	0	0	0	0	501	512	503	507	31	31	
10	0	0	0	0	500	519	507	507	31	31	
11	0	0	0	0	501	515	503	511	31	31	
12	0	0	0	0	502	514	505	510	31	31	
13	0	0	0	0	503	512	514	510	31	31	
14	0	0	0	0	504	512	509	511	31	31	
15	0	0	0	0	502	514	512	514	31	31	
0	0	0	0	0	504	513	516	511	31	32	
1	0	0	0	0	504	511	511	510	31	31	
2	0	0	0	0	503	511	516	505	31	32	
3	0	0	0	0	506	514	508	508	31	31	
4	0	0	0	0	507	516	518	510	31	31	
5	0	0	0	0	505	516	519	510	31	31	
6	0	0	0	0	507	517	523	507	31	31	
7	0	0	0	0	506	515	511	511	31	31	
8	0	0	0	0	505	512	507	511	31	31	
9	0	0	0	0	505	508	506	510	31	31	
10	0	0	0	0	504	507	505	512	31	31	
11	0	0	0	0	502	506	510	512	31	31	
12	0	0	0	0	502	512	499	511	31	31	
13	0	0	0	0	502	514	496	512	31	31	
14	0	0	0	0	504	513	499	511	31	31	
15	0	0	0	0	504	513	508	512	31	31	
0	0	0	0	0	504	515	508	509	31	31	
1	0	0	0	0	503	512	499	510	31	31	
2	0	0	0	0	504	510	508	510	31	31	
3	0	0	0	0	502	510	513	512	31	31	
4	0	0	0	0	502	509	511	510	31	32	
5	0	0	0	0	502	505	516	508	31	31	
6	0	0	0	0	504	504	510	509	31	31	
7	0	0	0	0	507	514	505	510	31	31	
8	0	0	0	0	504	516	513	508	31	32	
9	0	0	0	0	503	516	511	508	31	31	
10	0	0	0	0	502	514	518	511	31	31	
11	0	0	0	0	501	512	505	510	31	32	
12	0	0	0	0	501	509	507	511	31	31	
13	0	0	0	0	502	513	507	511	31	31	
14	0	0	0	0	502	513	502	509	31	31	
15	0	0	0	0	505	517	504	508	31	31	
0	0	0	0	0	505	515	506	509	31	31	
1	0	0	0	0	505	514	506	506	31	31	
2	0	0	0	0	505	511	517	512	31	31	
3	0	0	0	0	504	512	516	510	31	31	
4	0	0	0	0	505	510	519	510	31	31	
5	0	0	0	0	504	509	512	510	31	31	
6	0	0	0	0	504	507	516	511	31	32	
7	0	0	0	0	503	510	519	511	31	31	
8	0	0	0	0	505	510	513	509	31	31	
9	0	0	0	0	503	510	505	504	31	31	
10	0	0	0	0	502	512	507	510	31	31	
11	0	0	0	0	501	514	504	509	31	31	
12	0	0	0	0	502	516	508	510	31	31	
13	0	0	0	0	504	516	510	512	31	31	
14	0	0	0	0	505	514	516	510	31	32	
15	0	0	0	0	503	513	508	509	31	31	
0	0	0	0	0	505	514	511	508	31	31	
1	0	0	0	0	503	510	510	510	31	32	
2	0	0	0	0	502	512	518	509	31	31	
3	0	0	0	0	503	510	516	509	31	31	
4	0	0	0	0	504	510	519	508	31	31	
5	0	0	0	0	503	510	506	511	31	31	
6	0	0	0	0	505	515	507	510	31	31	
7	0	0	0	0	504	514	505	510	31	31	
8	0	0	0	0	504	511	508	508	31	31	
9	0	0	0	0	504	512	511	513	31	32	
10	0	0	0	0	503	512	497	510	31	31	
11	0	0	0	0	504	516	508	509	31	31	
12	0	0	0	0	504	517	506	509	31	31	
13	0	0	0	0	504	515	508	510	31	31	
14	0	0	0	0	504	512	508	511	31	31	
15	0	0	0	0	502	510	499	512	31	31	
0	0	0	0	0	500	511	516	512	31	31	
1	0	0	0	0	502	514	518	511	31	32	
2	0	0	0	0	505	515	510	510	31	31	
3	0	0	0	0	505	512	508	509	31	31	
4	0	0	0	0	504	507	508	511	31	31	
5	0	0	0	0	507	509	515	512	31	31	
6	0	0	0	0	504	511	508	511	31	32	
7	0	0	0	0	503	510	507	510	31	32	
8	0	0	0	0	504	512	508	511	31	31	
9	0	0	0	0	504	510	512	510	31	31	
10	0	0	0	0	503	510	514	512	31	31	
11	0	0	0	0	506	506	516	504	31	31	
12	0	0	0	0	503	510	508	510	31	31	
13	0	0	0	0	505	515	501	511	31	31	
14	0	0	0	0	504	516	511	510	31	31	
15	0	0	0	0	504	515	508	509	31	32	
0	0	0	0	0	502	513	511	508	31	31	
1	0	0	0	0	503	516	512	510	31	32	
2	0	0	0	0	501	511	513	508	31	31	
3	0	0	0	0	504	513	510	512	31	31	
4	0	0	0	0	505	511	516	512	31	32	
5	0	0	0	0	506	508	517	512	31	31	
6	0	0	0	0	504	508	510	509	31	31	
7	0	0	0	0	503	511	508	509	31	32	
8	0	0	0	0	502	514	505	511	31	32	
9	0	0	0	0	504	516	498	509	31	31	
10	0	0	0	0	502	520	511	510	31	31	
11	0	0	0	0	504	511	501	512	31	31	
12	0	0	0	0	505	510	496	513	31	31	
13	0	0	0	0	502	510	506	511	31	31	
14	0	0	0	0	500	511	512	510	31	31	
15	0	0	0	0	503	512	508	511	31	31	
0	0	0	0	0	502	512	509	508	31	31	
1	0	0	0	0	503	513	503	508	31	31	
2	0	0	0	0	505	514	511	511	31	31	
3	0	0	0	0	503	511	515	509	31	31	
4	0	0	0	0	505	510	520	512	31	31	
5	0	0	0	0	505	511	520	512	31	31	
6	0	0	0	0	505	517	510	510	31	31	
7	0	0	0	0	504	519	509	507	31	31	
8	0	0	0	0	502	515	511	510	31	31	
9	0	0	0	0	504	514	504	511	31	31	
10	0	0	0	0	503	514	508	511	31	32	
11	0	0	0	0	503	510	515	510	31	31	
12	0	0	0	0	504	508	510	509	31	31	
13	0	0	0	0	504	508	509	510	31	31	
14	0	0	0	0	505	512	511	512	31	31	
15	0	0	0	0	503	515	508	511	31	31	
0	0	0	0	0	503	512	502	506	31	31	
1	0	0	0	0	504	518	498	510	31	32	
2	0	0	0	0	504	517	501	511	31	32	
3	0	0	0	0	503	516	510	509	31	31	
4	0	0	0	0	504	513	508	509	31	31	
5	0	0	0	0	503	512	513	511	31	31	
6	0	0	0	0	501	511	517	510	31	31	
7	0	0	0	0	502	507	518	511	31	31	
8	0	0	0	0	503	503	514	509	31	31	
9	0	0	0	0	503	499	508	507	31	31	
10	0	0	0	0	505	508	500	511	31	31	
11	0	0	0	0	502	511	510	508	31	31	
12	0	0	0	0	502	516	508	511	31	31	
13	0	0	0	0	504	521	515	508	31	31	
14	0	0	0	0	505	515	510	512	31	31	
15	0	0	0	0	504	513	504	511	31	32	
0	0	0	0	0	506	516	501	510	31	31	
1	0	0	0	0	503	516	502	511	31	31	
2	0	0	0	0	504	513	507	512	31	31	
3	0	0	0	0	503	512	512	510	31	31	
4	0	0	0	0	504	513	511	510	31	31	
5	0	0	0	0	503	510	509	511	31	31	
6	0	0	0	0	505	511	511	511	31	31	
7	0	0	0	0	504	511	504	513	31	31	
8	0	0	0	0	505	511	511	509	31	32	
9	0	0	0	0	504	511	504	505	31	31	
10	0	0	0	0	504	513	508	509	31	32	
11	0	0	0	0	505	512	511	511	31	31	
12	0	0	0	0	505	513	515	510	31	31	
13	0	0	0	0	505	517	512	509	31	31	
14	0	0	0	0	504	515	513	512	31	31	
15	0	0	0	0	502	514	513	510	31	32	
0	0	0	0	0	504	511	512	510	31	31	
1	0	0	0	0	503	508	511	508	31	31	
2	0	0	0	0	503	513	504	510	31	31	
3	0	0	0	0	504	516	508	509	31	31	
4	0	0	0	0	500	513	504	509	31	32	
5	0	0	0	0	502	515	512	510	31	32	
6	0	0	0	0	502	515	512	509	31	32	
7	0	0	0	0	502	513	521	505	31	31	
8	0	0	0	0	503	508	515	508	31	31	
9	0	0	0	0	502	504	510	510	31	31	
10	0	0	0	0	504	508	512	510	31	31	
11	0	0	0	0	502	511	521	511	31	31	
12	0	0	0	0	504	511	512	513	31	31	
13	0	0	0	0	505	510	499	512	31	31	
14	0	0	0	0	505	506	502	511	31	32	
15	0	0	0	0	504	511	511	509	31	31	
0	0	0	0	0	505	512	502	510	31	31	
1	0	0	0	0	502	515	499	510	31	32	
2	0	0	0	0	502	515	504	511	31	32	
3	0	0	0	0	501	513	501	510	31	31	
4	0	0	0	0	502	514	502	510	31	31	
5	0	0	0	0	503	512	506	510	31	31	
6	0	0	0	0	501	510	508	511	31	32	
7	0	0	0	0	504	511	508	510	31	32	
8	0	0	0	0	503	513	505	511	31	32	
9	0	0	0	0	503	516	510	512	31	32	
10	0	0	0	0	504	513	519	511	31	31	
11	0	0	0	0	504	513	509	508	31	31	
12	0	0	0	0	504	513	511	507	31	31	
13	0	0	0	0	504	510	512	510	31	31	
14	0	0	0	0	505	508	513	511	31	31	
15	0	0	0	0	508	513	510	510	31	31	
0	0	0	0	0	504	520	508	508	31	31	
1	0	0	0	0	503	521	506	510	31	31	
2	0	0	0	0	503	519	511	509	31	32	
3	0	0	0	0	503	516	514	512	31	32	
4	0	0	0	0	505	511	513	513	31	31	
5	0	0	0	0	504	509	515	512	31	32	
6	0	0	0	0	504	509	517	510	31	31	
7	0	0	0	0	503	509	517	508	31	31	
8	0	0	0	0	504	508	512	509	31	31	
9	0	0	0	0	505	512	516	511	31	31	
10	0	0	0	0	507	509	513	512	31	31	
11	0	0	0	0	502	508	499	510	31	31	
12	0	0	0	0	504	508	499	513	31	31	
13	0	0	0	0	505	511	499	511	31	31	
14	0	0	0	0	502	512	504	509	31	31	
15	0	0	0	0	504	511	505	509	31	31	
0	0	0	0	0	503	508	506	509	31	32	
1	0	0	0	0	503	511	510	510	31	32	
2	0	0	0	0	501	513	503	509	31	31	
3	0	0	0	0	501	513	505	511	31	31	
4	0	0	0	0	503	518	504	512	31	31	
5	0	0	0	0	502	518	507	513	31	31	
6	0	0	0	0	502	513	501	510	31	31	
7	0	0	0	0	503	513	507	510	31	31	
8	0	0	0	0	504	511	515	508	31	31	
9	0	0	0	0	504	514	521	508	31	31	
10	0	0	0	0	503	512	515	508	31	32	
11	0	0	0	0	503	513	513	511	31	32	
12	0	0	0	0	503	510	516	511	31	32	
13	0	0	0	0	504	507	520	511	31	32	
14	0	0	0	0	503	512	512	511	31	32	
15	0	0	0	0	502	511	511	512	31	31	
0	0	0	0	0	502	515	505	511	31	31	
1	0	0	0	0	502	514	511	508	31	31	
2	0	0	0	0	503	515	517	509	31	31	
3	0	0	0	0	504	510	510	511	31	31	
4	0	0	0	0	503	506	499	511	31	31	
5	0	0	0	0	503	514	497	511	31	31	
6	0	0	0	0	503	518	507	510	31	31	
7	0	0	0	0	502	517	513	508	31	32	
8	0	0	0	0	505	515	514	511	31	32	
9	0	0	0	0	507	513	508	510	31	32	
10	0	0	0	0	507	513	507	508	31	31	
11	0	0	0	0	506	511	514	510	31	31	
12	0	0	0	0	504	508	521	510	31	31	
13	0	0	0	0	504	508	520	509	31	32	
14	0	0	0	0	504	510	510	509	31	31	
15	0	0	0	0	504	514	511	509	31	32	
0	0	0	0	0	504	513	498	511	31	31	
1	0	0	0	0	504	512	504	510	31	31	
2	0	0	0	0	503	513	508	510	31	31	
3	0	0	0	0	504	510	506	511	31	31	
4	0	0	0	0	503	507	506	512	31	31	
5	0	0	0	0	505	509	505	507	31	31	
6	0	0	0	0	504	510	508	508	31	31	
7	0	0	0	0	502	513	514	510	31	31	
8	0	0	0	0	504	517	514	508	31	32	
9	0	0	0	0	502	516	508	508	31	31	
10	0	0	0	0	503	514	509	510	31	31	
11	0	0	0	0	501	514	516	511	31	31	
12	0	0	0	0	500	515	521	512	31	31	
13	0	0	0	0	502	518	511	513	31	31	
14	0	0	0	0	503	518	502	510	31	31	
15	0	0	0	0	505	519	511	511	31	32	
0	0	0	0	0	502	515	516	511	31	31	
1	0	0	0	0	505	514	510	511	31	31	
2	0	0	0	0	504	510	510	512	31	31	
3	0	0	0	0	505	506	509	508	31	31	
4	0	0	0	0	503	508	503	508	31	32	
5	0	0	0	0	502	511	513	510	31	31	
6	0	0	0	0	504	512	509	511	31	31	
7	0	0	0	0	504	511	504	513	31	32	
8	0	0	0	0	504	513	512	511	31	31	
9	0	0	0	0	505	513	511	511	31	31	
10	0	0	0	0	508	512	517	509	31	31	
11	0	0	0	0	504	508	510	509	31	32	
12	0	0	0	0	502	508	504	510	31	31	
13	0	0	0	0	502	507	502	509	31	31	
14	0	0	0	0	503	511	506	512	31	31	
15	0	0	0	0	503	512	511	512	31	31	
0	0	0	0	0	502	510	509	512	31	31	
1	0	0	0	0	500	509	507	508	31	31	
2	0	0	0	0	502	512	517	508	31	31	
3	0	0	0	0	504	513	514	510	31	31	
4	0	0	0	0	506	514	508	511	31	31	
5	0	0	0	0	504	516	500	512	31	31	
6	0	0	0	0	504	517	495	511	31	31	
7	0	0	0	0	505	516	504	511	31	31	
8	0	0	0	0	504	513	510	507	31	31	
9	0	0	0	0	501	512	515	506	31	31	
10	0	0	0	0	504	516	517	510	31	31	
11	0	0	0	0	505	513	519	511	31	31	
12	0	0	0	0	505	513	511	511	31	31	
13	0	0	0	0	503	516	519	511	31	31	
14	0	0	0	0	501	516	512	509	31	31	
15	0	0	0	0	504	516	519	512	31	31	
0	0	0	0	0	503	514	505	508	31	32	
1	0	0	0	0	504	512	503	511	31	31	
2	0	0	0	0	502	513	513	508	31	32	
3	0	0	0	0	502	511	515	509	31	32	
4	0	0	0	0	504	508	511	508	31	31	
5	0	0	0	0	504	511	504	510	31	31	
6	0	0	0	0	505	512	504	512	31	31	
7	0	0	0	0	504	510	499	511	31	31	
8	0	0	0	0	504	508	504	513	31	31	
9	0	0	0	0	502	506	507	512	31	31	
10	0	0	0	0	499	505	504	510	31	31	
11	0	0	0	0	500	508	494	507	31	31	
12	0	0	0	0	503	510	509	510	31	32	
13	0	0	0	0	503	514	515	511	31	31	
14	0	0	0	0	504	519	517	509	31	31	
15	0	0	0	0	505	518	507	511	31	31	
0	0	0	0	0	504	515	514	511	31	31	
1	0	0	0	0	505	510	519	510	31	31	
2	0	0	0	0	505	508	518	512	31	31	
3	0	0	0	0	504	511	514	508	31	31	
4	0	0	0	0	505	512	517	509	31	31	
5	0	0	0	0	503	511	511	511	31	31	
6	0	0	0	0	503	512	503	510	31	31	
7	0	0	0	0	504	512	499	514	31	31	
8	0	0	0	0	505	513	508	511	31	32	
9	0	0	0	0	503	514	506	512	31	31	
10	0	0	0	0	504	515	507	510	31	31	
11	0	0	0	0	503	514	512	512	31	31	
12	0	0	0	0	502	516	511	510	31	32	
13	0	0	0	0	501	513	513	507	31	32	
14	0	0	0	0	502	513	510	507	31	31	
15	0	0	0	0	503	513	513	510	31	31	
0	0	0	0	0	504	514	508	509	31	31	
1	0	0	0	0	504	515	514	511	31	31	
2	0	0	0	0	507	512	509	512	31	31	
3	0	0	0	0	503	511	501	510	31	32	
4	0	0	0	0	503	511	507	510	31	31	
5	0	0	0	0	501	513	496	511	31	32	
6	0	0	0	0	504	513	503	511	31	31	
7	0	0	0	0	503	509	507	513	31	32	
8	0	0	0	0	504	509	502	509	31	32	
9	0	0	0	0	504	513	508	509	31	31	
10	0	0	0	0	504	516	510	510	31	31	
11	0	0	0	0	505	515	513	509	31	31	
12	0	0	0	0	505	513	509	510	31	31	
13	0	0	0	0	503	510	517	507	31	32	
14	0	0	0	0	502	509	513	510	31	31	
15	0	0	0	0	505	508	516	509	31	31	
0	0	0	0	0	506	508	522	510	31	31	
1	0	0	0	0	505	511	512	508	31	31	
2	0	0	0	0	504	512	507	511	31	31	
3	0	0	0	0	504	513	504	511	31	31	
4	0	0	0	0	500	511	502	512	31	31	
5	0	0	0	0	503	513	514	511	31	32	
6	0	0	0	0	502	510	515	509	31	32	
7	0	0	0	0	501	511	508	508	31	32	
8	0	0	0	0	502	515	515	512	31	32	
9	0	0	0	0	504	514	505	508	31	32	
10	0	0	0	0	507	515	505	511	31	32	
11	0	0	0	0	506	514	511	512	31	31	
12	0	0	0	0	504	512	504	509	31	31	
13	0	0	0	0	504	510	509	510	31	31	
14	0	0	0	0	503	512	510	510	31	31	
15	0	0	0	0	503	511	512	515	31	31	
0	0	0	0	0	504	508	511	514	31	31	
1	0	0	0	0	503	512	519	510	31	31	
2	0	0	0	0	503	515	507	507	31	31	
3	0	0	0	0	501	513	507	508	31	31	
4	0	0	0	0	504	513	509	510	31	31	
5	0	0	0	0	505	513	507	510	31	31	
6	0	0	0	0	502	515	508	511	31	31	
7	0	0	0	0	503	514	512	512	31	31	
8	0	0	0	0	504	510	507	513	31	31	
9	0	0	0	0	505	510	505	511	31	31	
10	0	0	0	0	506	509	505	511	31	31	
11	0	0	0	0	505	507	508	510	31	31	
12	0	0	0	0	504	508	512	508	31	31	
13	0	0	0	0	501	514	519	508	31	31	
14	0	0	0	0	502	519	519	511	31	31	
15	0	0	0	0	502	518	517	511	31	32	
0	0	0	0	0	503	519	507	508	31	32	
1	0	0	0	0	503	515	513	511	31	32	
2	0	0	0	0	504	515	513	512	31	32	
3	0	0	0	0	503	514	502	510	31	31	
4	0	0	0	0	504	513	504	513	31	32	
5	0	0	0	0	503	513	500	511	31	31	
6	0	0	0	0	505	514	513	512	31	31	
7	0	0	0	0	505	515	520	510	31	31	
8	0	0	0	0	502	508	517	507	31	32	
9	0	0	0	0	504	512	507	507	31	32	
10	0	0	0	0	504	511	498	509	31	31	
11	0	0	0	0	504	508	502	509	31	32	
12	0	0	0	0	504	505	509	510	31	31	
13	0	0	0	0	503	509	515	510	31	31	
14	0	0	0	0	504	510	519	509	31	31	
15	0	0	0	0	501	512	504	511	31	31	
0	0	0	0	0	503	513	501	511	31	31	
1	0	0	0	0	502	511	516	514	31	32	
2	0	0	0	0	505	512	510	511	31	31	
3	0	0	0	0	503	511	496	510	31	31	
4	0	0	0	0	504	511	503	510	31	31	
5	0	0	0	0	504	510	504	511	31	31	
6	0	0	0	0	506	511	500	510	31	31	
7	0	0	0	0	507	511	510	507	31	31	
8	0	0	0	0	505	512	510	510	31	31	
9	0	0	0	0	504	512	504	510	31	31	
10	0	0	0	0	501	516	504	509	31	31	
11	0	0	0	0	501	517	513	511	31	31	
12	0	0	0	0	498	513	516	511	31	32	
13	0	0	0	0	503	511	510	510	31	31	
14	0	0	0	0	502	511	511	511	31	31	
15	0	0	0	0	504	509	523	510	31	31	
0	0	0	0	0	503	511	513	511	31	31	
1	0	0	0	0	505	513	511	511	31	31	
2	0	0	0	0	506	516	516	511	31	32	
3	0	0	0	0	506	510	496	510	31	32	
4	0	0	0	0	507	511	512	511	31	31	
5	0	0	0	0	505	509	508	510	31	31	
6	0	0	0	0	502	518	504	509	31	31	
7	0	0	0	0	499	519	510	510	31	31	
8	0	0	0	0	499	518	509	513	31	31	
9	0	0	0	0	500	516	510	509	31	31	
10	0	0	0	0	505	515	510	507	31	31	
11	0	0	0	0	504	508	504	510	31	31	
12	0	0	0	0	504	508	508	509	31	31	
13	0	0	0	0	504	507	509	508	31	31	
14	0	0	0	0	505	509	504	510	31	32	
15	0	0	0	0	505	508	501	513	31	32	
0	0	0	0	0	503	510	519	510	31	31	
1	0	0	0	0	504	510	519	511	31	31	
2	0	0	0	0	505	510	516	507	31	31	
3	0	0	0	0	504	510	518	509	31	31	
4	0	0	0	0	505	511	504	509	31	31	
5	0	0	0	0	503	513	508	510	31	31	
6	0	0	0	0	502	514	503	511	31	32	
7	0	0	0	0	501	513	503	509	31	32	
8	0	0	0	0	502	514	504	508	31	31	
9	0	0	0	0	503	514	502	513	31	31	
10	0	0	0	0	507	513	503	510	31	31	
11	0	0	0	0	505	512	513	510	31	31	
12	0	0	0	0	505	511	506	509	31	31	
13	0	0	0	0	504	513	512	510	31	31	
14	0	0	0	0	505	511	509	510	31	31	
15	0	0	0	0	505	511	515	510	31	32	
0	0	0	0	0	504	512	522	513	31	32	
1	0	0	0	0	504	513	520	509	31	31	
2	0	0	0	0	507	513	515	510	31	31	
3	0	0	0	0	506	513	513	512	31	32	
4	0	0	0	0	505	515	508	512	31	31	
5	0	0	0	0	504	515	506	512	31	31	
6	0	0	0	0	499	514	508	509	31	31	
7	0	0	0	0	501	513	511	509	31	31	
8	0	0	0	0	502	514	511	511	31	31	
9	0	0	0	0	499	515	508	510	31	32	
10	0	0	0	0	499	511	509	510	31	31	
11	0	0	0	0	502	510	508	509	31	32	
12	0	0	0	0	502	510	511	509	31	31	
13	0	0	0	0	505	512	507	509	31	31	
14	0	0	0	0	503	511	518	511	31	31	
15	0	0	0	0	502	512	520	510	31	31	
0	0	0	0	0	504	514	512	508	31	31	
1	0	0	0	0	503	515	500	510	31	31	
2	0	0	0	0	503	510	505	510	31	31	
3	0	0	0	0	507	507	508	512	31	31	
4	0	0	0	0	507	511	513	510	31	31	
5	0	0	0	0	506	515	506	510	31	31	
6	0	0	0	0	507	515	512	511	31	31	
7	0	0	0	0	504	517	504	511	31	31	
8	0	0	0	0	505	516	507	512	31	32	
9	0	0	0	0	504	518	508	512	31	32	
10	0	0	0	0	503	518	501	508	31	31	
11	0	0	0	0	504	517	507	506	31	31	
12	0	0	0	0	504	508	503	509	31	31	
13	0	0	0	0	503	501	508	511	31	31	
14	0	0	0	0	504	501	510	510	31	31	
15	0	0	0	0	503	507	507	511	31	31	
0	0	0	0	0	503	511	506	507	31	31	
1	0	0	0	0	503	514	504	510	31	31	
2	0	0	0	0	504	513	514	510	31	32	
3	0	0	0	0	505	511	517	512	31	31	
4	0	0	0	0	502	511	512	510	31	31	
5	0	0	0	0	502	514	509	511	31	31	
6	0	0	0	0	498	517	512	511	31	31	
7	0	0	0	0	496	520	520	509	31	31	
8	0	0	0	0	496	523	515	510	31	31	
9	0	0	0	0	499	525	521	508	31	31	
10	0	0	0	0	504	515	518	508	31	31	
11	0	0	0	0	507	502	510	512	31	31	
12	0	0	0	0	506	499	504	511	31	31	
13	0	0	0	0	506	501	502	510	31	31	
14	0	0	0	0	505	506	502	510	31	32	
15	0	0	0	0	506	508	502	508	31	32	
0	0	0	0	0	507	511	507	511	31	32	
1	0	0	0	0	506	511	511	511	31	31	
2	0	0	0	0	507	515	508	511	31	31	
3	0	0	0	0	505	524	510	509	31	31	
4	0	0	0	0	505	519	506	509	31	31	
5	0	0	0	0	507	510	510	511	31	31	
6	0	0	0	0	507	513	512	508	31	31	
7	0	0	0	0	505	519	512	514	31	31	
8	0	0	0	0	502	509	508	512	31	31	
9	0	0	0	0	500	502	505	511	31	32	
10	0	0	0	0	500	507	507	512	31	32	
11	0	0	0	0	501	512	504	510	31	31	
12	0	0	0	0	504	514	507	508	31	31	
13	0	0	0	0	503	507	504	508	31	31	
14	0	0	0	0	501	503	503	510	31	31	
15	0	0	0	0	501	517	501	511	31	32	
0	0	0	0	0	500	522	510	512	31	32	
1	0	0	0	0	501	524	511	509	31	31	
2	0	0	0	0	500	522	513	510	31	31	
3	0	0	0	0	504	522	522	512	31	31	
4	0	0	0	0	505	512	522	512	31	31	
5	0	0	0	0	503	504	508	511	31	31	
6	0	0	0	0	501	504	503	504	31	32	
7	0	0	0	0	502	503	511	508	31	31	
8	0	0	0	0	500	504	497	509	31	32	
9	0	0	0	0	500	513	510	510	31	32	
10	0	0	0	0	504	505	508	511	31	32	
11	0	0	0	0	504	503	508	509	31	32	
12	0	0	0	0	505	506	508	513	31	31	
13	0	0	0	0	504	518	509	512	31	31	
14	0	0	0	0	506	524	506	508	31	31	
15	0	0	0	0	508	525	512	510	31	31	
0	0	0	0	0	507	515	522	507	31	31	
1	0	0	0	0	506	509	519	509	31	31	
2	0	0	0	0	503	510	514	511	31	32	
3	0	0	0	0	503	515	512	509	31	31	
4	0	0	0	0	501	519	516	514	31	31	
5	0	0	0	0	499	519	511	511	31	32	
6	0	0	0	0	499	521	506	512	31	32	
7	0	0	0	0	502	511	514	510	31	31	
8	0	0	0	0	504	500	512	509	31	31	
9	0	0	0	0	505	512	511	510	31	31	
10	0	0	0	0	507	517	512	510	31	32	
11	0	0	0	0	506	512	505	512	31	32	
12	0	0	0	0	507	509	504	514	31	32	
13	0	0	0	0	505	511	504	510	31	32	
14	0	0	0	0	504	512	507	508	31	31	
15	0	0	0	0	504	509	511	507	31	31	
0	0	0	0	0	504	509	504	508	31	31	
1	0	0	0	0	503	511	506	508	31	31	
2	0	0	0	0	504	510	509	509	31	31	
3	0	0	0	0	503	511	515	511	31	31	
4	0	0	0	0	503	505	518	512	31	31	
5	0	0	0	0	501	507	511	512	31	31	
6	0	0	0	0	502	516	506	514	31	31	
7	0	0	0	0	502	521	512	510	31	31	
8	0	0	0	0	499	512	518	511	31	31	
9	0	0	0	0	502	507	516	509	31	31	
10	0	0	0	0	504	511	501	508	31	31	
11	0	0	0	0	502	512	511	510	31	32	
12	0	0	0	0	504	508	509	508	31	31	
13	0	0	0	0	508	516	513	505	31	31	
14	0	0	0	0	508	516	516	509	31	31	
15	0	0	0	0	510	518	510	509	31	31	
0	0	0	0	0	505	519	504	510	31	31	
1	0	0	0	0	505	519	506	511	31	31	
2	0	0	0	0	501	510	505	511	31	31	
3	0	0	0	0	499	510	504	515	31	31	
4	0	0	0	0	500	512	507	512	31	31	
5	0	0	0	0	505	512	511	509	31	31	
6	0	0	0	0	506	514	516	508	31	31	
7	0	0	0	0	504	519	515	511	31	31	
8	0	0	0	0	507	514	515	512	31	31	
9	0	0	0	0	504	510	515	511	31	32	
10	0	0	0	0	502	508	507	511	31	32	
11	0	0	0	0	503	509	508	510	31	31	
12	0	0	0	0	504	515	511	508	31	31	
13	0	0	0	0	501	516	505	509	31	31	
14	0	0	0	0	500	508	512	511	31	31	
15	0	0	0	0	500	506	502	512	31	32	
0	0	0	0	0	501	505	501	511	31	32	
1	0	0	0	0	502	508	506	511	31	32	
2	0	0	0	0	505	506	508	511	31	32	
3	0	0	0	0	507	504	503	512	31	31	
4	0	0	0	0	506	510	506	508	31	31	
5	0	0	0	0	507	514	507	508	31	31	
6	0	0	0	0	506	516	508	510	31	31	
7	0	0	0	0	504	522	512	513	31	32	
8	0	0	0	0	503	523	503	511	31	31	
9	0	0	0	0	505	526	510	508	31	31	
10	0	0	0	0	502	518	512	509	31	31	
11	0	0	0	0	500	508	515	510	31	31	
12	0	0	0	0	503	508	516	513	31	31	
13	0	0	0	0	504	511	510	511	31	31	
14	0	0	0	0	499	518	507	511	31	31	
15	0	0	0	0	502	521	500	512	31	32	
0	0	0	0	0	503	509	515	508	31	31	
1	0	0	0	0	504	508	511	508	31	31	
2	0	0	0	0	505	505	512	510	31	32	
3	0	0	0	0	505	514	514	510	31	32	
4	0	0	0	0	507	504	511	510	31	31	
5	0	0	0	0	506	502	509	510	31	31	
6	0	0	0	0	505	508	508	510	31	31	
7	0	0	0	0	503	516	510	508	31	31	
8	0	0	0	0	503	516	506	510	31	31	
9	0	0	0	0	503	511	514	510	31	31	
10	0	0	0	0	505	512	512	510	31	31	
11	0	0	0	0	506	516	507	508	31	31	
12	0	0	0	0	506	517	508	510	31	31	
13	0	0	0	0	504	514	504	510	31	31	
14	0	0	0	0	504	518	509	513	31	31	
15	0	0	0	0	501	515	516	511	31	32	
0	0	0	0	0	504	510	507	513	31	31	
1	0	0	0	0	503	513	504	509	31	31	
2	0	0	0	0	498	510	505	506	31	32	
3	0	0	0	0	500	511	508	510	31	31	
4	0	0	0	0	502	511	508	511	31	31	
5	0	0	0	0	502	509	505	512	31	31	
6	0	0	0	0	501	510	512	506	31	32	
7	0	0	0	0	501	511	506	507	31	31	
8	0	0	0	0	502	515	514	509	31	32	
9	0	0	0	0	503	511	522	514	31	32	
10	0	0	0	0	502	508	511	512	31	32	
11	0	0	0	0	504	510	514	510	31	32	
12	0	0	0	0	506	513	508	509	31	31	
13	0	0	0	0	504	513	505	508	31	31	
14	0	0	0	0	505	510	507	511	31	31	
15	0	0	0	0	506	511	508	511	31	31	
0	0	0	0	0	504	509	512	510	31	31	
1	0	0	0	0	504	511	510	510	31	31	
2	0	0	0	0	505	516	505	509	31	32	
3	0	0	0	0	504	521	500	509	31	31	
4	0	0	0	0	504	514	504	508	31	31	
5	0	0	0	0	504	513	509	509	31	31	
6	0	0	0	0	504	516	507	509	31	31	
7	0	0	0	0	504	515	493	510	31	31	
8	0	0	0	0	504	512	506	510	31	31	
9	0	0	0	0	503	510	512	510	31	31	
10	0	0	0	0	505	509	511	511	31	32	
11	0	0	0	0	507	511	515	512	31	31	
12	0	0	0	0	505	511	516	511	31	31	
13	0	0	0	0	502	512	517	511	31	31	
14	0	0	0	0	502	513	511	511	31	31	
15	0	0	0	0	500	516	505	510	31	31	
0	0	0	0	0	500	519	513	510	31	31	
1	0	0	0	0	502	509	506	511	31	32	
2	0	0	0	0	502	511	513	509	31	32	
3	0	0	0	0	504	513	518	508	31	31	
4	0	0	0	0	504	512	510	508	31	31	
5	0	0	0	0	504	511	496	511	31	32	
6	0	0	0	0	504	507	507	512	31	31	
7	0	0	0	0	502	516	509	513	31	32	
8	0	0	0	0	504	518	507	510	31	32	
9	0	0	0	0	502	503	510	508	31	31	
10	0	0	0	0	504	502	515	507	31	31	
11	0	0	0	0	504	506	514	508	31	31	
12	0	0	0	0	507	509	515	511	31	31	
13	0	0	0	0	505	510	515	509	31	31	
14	0	0	0	0	504	510	507	511	31	32	
15	0	0	0	0	504	511	510	511	31	32	
0	0	0	0	0	504	512	509	509	31	31	
1	0	0	0	0	505	512	503	511	31	31	
2	0	0	0	0	507	512	506	509	31	31	
3	0	0	0	0	505	512	510	511	31	31	
4	0	0	0	0	505	520	508	511	31	31	
5	0	0	0	0	504	521	503	511	31	31	
6	0	0	0	0	503	520	515	511	31	31	
7	0	0	0	0	502	513	513	511	31	31	
8	0	0	0	0	501	510	507	513	31	32	
9	0	0	0	0	502	513	511	515	31	32	
10	0	0	0	0	504	518	506	507	31	32	
11	0	0	0	0	503	511	510	505	31	31	
12	0	0	0	0	502	513	507	511	31	31	
13	0	0	0	0	503	515	506	510	31	32	
14	0	0	0	0	504	515	503	508	31	31	
15	0	0	0	0	504	514	508	509	31	31	
0	0	0	0	0	504	511	517	511	31	31	
1	0	0	0	0	503	513	511	511	31	31	
2	0	0	0	0	500	508	504	507	31	31	
3	0	0	0	0	503	505	508	507	31	31	
4	0	0	0	0	505	506	507	510	31	31	
5	0	0	0	0	505	504	509	510	31	32	
6	0	0	0	0	504	506	505	512	31	32	
7	0	0	0	0	502	512	510	511	31	32	
8	0	0	0	0	502	517	514	511	31	31	
9	0	0	0	0	504	519	508	508	31	31	
10	0	0	0	0	505	517	515	512	31	31	
11	0	0	0	0	507	511	523	513	31	32	
12	0	0	0	0	502	511	516	512	31	32	
13	0	0	0	0	504	518	511	511	31	31	
14	0	0	0	0	502	513	505	511	31	31	
15	0	0	0	0	503	513	512	510	31	31	
0	0	0	0	0	503	514	508	506	31	31	
1	0	0	0	0	505	517	505	510	31	31	
2	0	0	0	0	504	516	504	510	31	31	
3	0	0	0	0	505	504	516	510	31	31	
4	0	0	0	0	502	504	518	509	31	32	
5	0	0	0	0	503	509	516	510	31	32	
6	0	0	0	0	503	510	497	510	31	31	
7	0	0	0	0	500	511	502	508	31	32	
8	0	0	0	0	502	512	510	510	31	31	
9	0	0	0	0	503	515	511	511	31	31	
10	0	0	0	0	502	514	510	510	31	31	
11	0	0	0	0	502	516	510	511	31	31	
12	0	0	0	0	504	514	516	513	31	31	
13	0	0	0	0	504	511	516	509	31	31	
14	0	0	0	0	503	512	525	510	31	31	
15	0	0	0	0	502	514	521	511	31	31	
0	0	0	0	0	503	517	520	509	31	32	
1	0	0	0	0	503	514	507	510	31	32	
2	0	0	0	0	503	512	510	508	31	32	
3	0	0	0	0	503	510	506	509	31	31	
4	0	0	0	0	503	513	502	510	31	31	
5	0	0	0	0	503	510	505	510	31	31	
6	0	0	0	0	504	512	499	510	31	31	
7	0	0	0	0	501	514	497	512	31	31	
8	0	0	0	0	501	512	512	510	31	31	
9	0	0	0	0	503	510	519	511	31	31	
10	0	0	0	0	504	513	509	510	31	32	
11	0	0	0	0	504	514	509	513	31	31	
12	0	0	0	0	504	509	507	510	31	31	
13	0	0	0	0	507	511	519	511	31	31	
14	0	0	0	0	504	508	517	509	31	32	
15	0	0	0	0	503	505	513	511	31	32	
0	0	0	0	0	504	509	506	511	31	31	
1	0	0	0	0	504	514	499	511	31	31	
2	0	0	0	0	503	517	504	509	31	31	
3	0	0	0	0	502	517	501	510	31	31	
4	0	0	0	0	504	515	507	511	31	31	
5	0	0	0	0	505	516	505	512	31	32	
6	0	0	0	0	503	515	511	511	31	31	
7	0	0	0	0	502	514	516	507	31	31	
8	0	0	0	0	503	511	511	507	31	31	
9	0	0	0	0	504	513	515	512	31	31	
10	0	0	0	0	502	514	511	512	31	32	
11	0	0	0	0	501	513	519	511	31	31	
12	0	0	0	0	503	511	519	510	31	31	
13	0	0	0	0	504	512	518	510	31	31	
14	0	0	0	0	504	509	513	509	31	31	
15	0	0	0	0	504	509	508	507	31	32	
0	0	0	0	0	501	510	503	510	31	32	
1	0	0	0	0	502	508	508	511	31	32	
2	0	0	0	0	502	506	503	512	31	31	
3	0	0	0	0	503	512	503	512	31	31	
4	0	0	0	0	504	515	498	508	31	32	
5	0	0	0	0	507	514	502	509	31	31	
6	0	0	0	0	507	516	509	508	31	31	
7	0	0	0	0	505	517	505	508	31	31	
8	0	0	0	0	503	516	500	506	31	31	
9	0	0	0	0	508	519	504	510	31	31	
10	0	0	0	0	505	517	505	511	31	31	
11	0	0	0	0	506	512	507	509	31	31	
12	0	0	0	0	507	510	511	507	31	31	
13	0	0	0	0	505	511	512	509	31	31	
14	0	0	0	0	503	508	515	513	31	31	
15	0	0	0	0	500	506	509	511	31	31	
0	0	0	0	0	503	509	515	512	31	31	
1	0	0	0	0	503	509	510	511	31	31	
2	0	0	0	0	502	509	511	509	31	32	
3	0	0	0	0	503	512	505	510	31	31	
4	0	0	0	0	503	510	507	510	31	31	
5	0	0	0	0	499	509	516	511	31	32	
6	0	0	0	0	501	512	515	510	31	31	
7	0	0	0	0	504	509	510	512	31	31	
8	0	0	0	0	504	512	499	513	31	32	
9	0	0	0	0	504	513	502	510	31	31	
10	0	0	0	0	504	511	507	511	31	31	
11	0	0	0	0	507	513	509	510	31	31	
12	0	0	0	0	504	513	502	508	31	32	
13	0	0	0	0	504	512	508	509	31	31	
14	0	0	0	0	503	514	512	509	31	31	
15	0	0	0	0	503	515	515	509	31	31	
0	0	0	0	0	503	518	509	510	31	31	
1	0	0	0	0	504	520	505	512	31	31	
2	0	0	0	0	504	515	510	512	31	31	
3	0	0	0	0	503	514	512	509	31	31	
4	0	0	0	0	502	509	512	509	31	31	
5	0	0	0	0	502	512	520	512	31	31	
6	0	0	0	0	501	510	512	510	31	31	
7	0	0	0	0	502	512	514	509	31	31	
8	0	0	0	0	503	521	513	510	31	31	
9	0	0	0	0	503	519	505	510	31	32	
10	0	0	0	0	503	509	509	510	31	31	
11	0	0	0	0	504	511	511	508	31	31	
12	0	0	0	0	504	511	505	508	31	32	
13	0	0	0	0	504	505	510	512	31	31	
14	0	0	0	0	505	509	513	513	31	31	
15	0	0	0	0	503	513	512	514	31	31	
0	0	0	0	0	503	512	507	510	31	31	
1	0	0	0	0	506	513	510	510	31	31	
2	0	0	0	0	505	511	514	509	31	31	
3	0	0	0	0	504	513	511	510	31	31	
4	0	0	0	0	504	516	512	508	31	31	
5	0	0	0	0	503	514	508	511	31	32	
6	0	0	0	0	504	513	503	510	31	32	
7	0	0	0	0	503	513	504	511	31	31	
8	0	0	0	0	504	514	513	507	31	31	
9	0	0	0	0	504	513	509	509	31	32	
10	0	0	0	0	502	511	508	511	31	31	
11	0	0	0	0	502	511	505	511	31	31	
12	0	0	0	0	501	511	502	512	31	31	
13	0	0	0	0	503	510	510	509	31	31	
14	0	0	0	0	503	512	509	512	31	31	
15	0	0	0	0	503	510	505	510	31	31	
0	0	0	0	0	503	506	508	509	31	31	
1	0	0	0	0	503	511	515	509	31	31	
2	0	0	0	0	505	513	511	510	31	31	
3	0	0	0	0	505	512	507	509	31	31	
4	0	0	0	0	503	512	510	513	31	31	
5	0	0	0	0	504	511	507	510	31	31	
6	0	0	0	0	502	512	513	509	31	32	
7	0	0	0	0	501	514	508	507	31	32	
8	0	0	0	0	502	512	513	508	31	31	
9	0	0	0	0	504	511	511	508	31	32	
10	0	0	0	0	504	515	503	508	31	32	
11	0	0	0	0	505	513	508	510	31	31	
12	0	0	0	0	504	511	507	510	31	31	
13	0	0	0	0	504	514	510	510	31	31	
14	0	0	0	0	503	516	510	510	31	31	
15	0	0	0	0	504	513	504	510	31	32	
0	0	0	0	0	501	513	511	513	31	32	
1	0	0	0	0	503	513	509	514	31	31	
2	0	0	0	0	504	513	509	513	31	32	
3	0	0	0	0	503	513	506	510	31	31	
4	0	0	0	0	504	511	502	510	31	31	
5	0	0	0	0	506	511	508	509	31	31	
6	0	0	0	0	504	512	511	509	31	31	
7	0	0	0	0	504	512	508	512	31	31	
8	0	0	0	0	505	510	511	511	31	31	
9	0	0	0	0	505	508	506	511	31	31	
10	0	0	0	0	504	511	503	510	31	31	
11	0	0	0	0	502	511	506	511	31	31	
12	0	0	0	0	500	512	508	510	31	31	
13	0	0	0	0	502	515	513	510	31	32	
14	0	0	0	0	502	514	505	512	31	31	
15	0	0	0	0	502	515	514	508	31	31	
0	0	0	0	0	502	514	523	510	31	31	
1	0	0	0	0	503	514	520	510	31	31	
2	0	0	0	0	503	515	517	510	31	31	
3	0	0	0	0	504	512	518	510	31	31	
4	0	0	0	0	507	510	509	512	31	32	
5	0	0	0	0	508	510	509	511	31	31	
6	0	0	0	0	506	513	512	509	31	31	
7	0	0	0	0	504	512	509	509	31	32	
8	0	0	0	0	501	508	512	511	31	31	
9	0	0	0	0	504	511	507	511	31	32	
10	0	0	0	0	505	513	506	510	31	31	
11	0	0	0	0	504	514	504	508	31	31	
12	0	0	0	0	504	518	507	507	31	31	
13	0	0	0	0	507	515	502	512	31	31	
14	0	0	0	0	504	508	513	509	31	31	
15	0	0	0	0	502	511	514	511	31	31	
0	0	0	0	0	502	510	508	510	31	32	
1	0	0	0	0	504	508	514	510	31	32	
2	0	0	0	0	504	506	517	513	31	32	
3	0	0	0	0	501	508	519	511	31	31	
4	0	0	0	0	503	508	515	505	31	31	
5	0	0	0	0	504	511	509	506	31	31	
6	0	0	0	0	504	513	500	509	31	31	
7	0	0	0	0	505	516	502	509	31	31	
8	0	0	0	0	502	515	508	512	31	32	
9	0	0	0	0	505	518	501	509	31	32	
10	0	0	0	0	504	514	506	509	31	31	
11	0	0	0	0	502	512	509	511	31	31	
12	0	0	0	0	505	513	511	511	31	32	
13	0	0	0	0	502	511	507	510	31	31	
14	0	0	0	0	502	516	512	509	31	31	
15	0	0	0	0	503	514	516	508	31	31	
0	0	0	0	0	502	514	508	511	31	31	
1	0	0	0	0	503	512	516	509	31	31	
2	0	0	0	0	505	512	520	511	31	31	
3	0	0	0	0	504	515	518	511	31	31	
4	0	0	0	0	503	518	507	511	31	32	
5	0	0	0	0	502	510	498	507	31	32	
6	0	0	0	0	503	512	507	510	31	31	
7	0	0	0	0	502	512	507	509	31	31	
8	0	0	0	0	502	513	505	510	31	31	
9	0	0	0	0	504	514	509	512	31	31	
10	0	0	0	0	502	513	503	510	31	32	
11	0	0	0	0	506	510	505	512	31	31	
12	0	0	0	0	504	508	502	513	31	31	
13	0	0	0	0	505	505	499	508	31	31	
14	0	0	0	0	507	506	501	509	31	31	
15	0	0	0	0	505	508	502	510	31	31	
0	0	0	0	0	505	512	509	509	31	31	
1	0	0	0	0	505	513	517	510	31	31	
2	0	0	0	0	505	518	524	510	31	31	
3	0	0	0	0	504	519	518	511	31	31	
4	0	0	0	0	503	518	516	512	31	31	
5	0	0	0	0	502	518	516	512	31	31	
6	0	0	0	0	503	517	511	508	31	31	
7	0	0	0	0	502	512	510	509	31	31	
8	0	0	0	0	503	507	516	513	31	32	
9	0	0	0	0	505	506	511	510	31	31	
10	0	0	0	0	502	505	506	509	31	31	
11	0	0	0	0	504	501	514	510	31	31	
12	0	0	0	0	503	504	512	510	31	31	
13	0	0	0	0	504	511	514	511	31	31	
14	0	0	0	0	502	517	517	508	31	31	
15	0	0	0	0	501	519	502	510	31	31	
0	0	0	0	0	502	517	503	512	31	32	
1	0	0	0	0	502	519	497	511	31	32	
2	0	0	0	0	504	516	507	512	31	32	
3	0	0	0	0	503	515	510	508	31	32	
4	0	0	0	0	507	515	505	511	31	31	
5	0	0	0	0	503	516	524	510	31	31	
6	0	0	0	0	502	517	525	509	31	32	
7	0	0	0	0	505	513	522	509	31	31	
8	0	0	0	0	503	511	516	508	31	31	
9	0	0	0	0	504	509	518	509	31	31	
10	0	0	0	0	503	508	519	511	31	31	
11	0	0	0	0	503	504	499	510	31	31	
12	0	0	0	0	504	505	504	509	31	31	
13	0	0	0	0	508	508	504	510	31	31	
14	0	0	0	0	507	511	503	510	31	31	
15	0	0	0	0	504	510	493	508	31	32	
0	0	0	0	0	506	512	505	509	31	32	
1	0	0	0	0	505	515	501	512	31	32	
2	0	0	0	0	503	515	506	511	31	32	
3	0	0	0	0	503	515	507	512	31	31	
4	0	0	0	0	500	513	513	509	31	31	
5	0	0	0	0	500	511	508	509	31	31	
6	0	0	0	0	501	512	507	511	31	32	
7	0	0	0	0	500	514	510	513	31	31	
8	0	0	0	0	501	513	509	512	31	31	
9	0	0	0	0	501	513	510	510	31	32	
10	0	0	0	0	501	517	506	511	31	31	
11	0	0	0	0	505	515	505	509	31	31	
12	0	0	0	0	503	512	507	508	31	32	
13	0	0	0	0	503	513	498	510	31	31	
14	0	0	0	0	505	510	506	509	31	31	
15	0	0	0	0	505	509	505	511	31	31	
0	0	0	0	0	507	507	502	511	31	31	
1	0	0	0	0	504	508	504	510	31	31	
2	0	0	0	0	504	510	505	509	31	31	
3	0	0	0	0	504	511	507	509	31	31	
4	0	0	0	0	504	510	512	509	31	31	
5	0	0	0	0	503	516	512	514	31	31	
6	0	0	0	0	505	518	510	512	31	31	
7	0	0	0	0	504	515	512	509	31	31	
8	0	0	0	0	505	511	508	505	31	32	
9	0	0	0	0	505	514	510	508	31	31	
10	0	0	0	0	502	512	511	509	31	31	
11	0	0	0	0	499	510	509	510	31	32	
12	0	0	0	0	499	514	504	508	31	32	
13	0	0	0	0	499	511	512	512	31	31	
14	0	0	0	0	504	506	512	511	31	31	
15	0	0	0	0	507	511	514	511	31	32	
0	0	0	0	0	504	513	510	512	31	31	
1	0	0	0	0	502	511	509	510	31	31	
2	0	0	0	0	502	512	514	509	31	31	
3	0	0	0	0	503	516	522	511	31	31	
4	0	0	0	0	503	520	521	508	31	31	
5	0	0	0	0	504	519	511	510	31	31	
6	0	0	0	0	503	520	513	510	31	31	
7	0	0	0	0	504	519	521	510	31	31	
8	0	0	0	0	505	516	516	510	31	31	
9	0	0	0	0	505	515	511	510	31	32	
10	0	0	0	0	504	510	505	509	31	31	
11	0	0	0	0	504	506	507	510	31	32	
12	0	0	0	0	505	512	504	508	31	31	
13	0	0	0	0	505	510	505	511	31	31	
14	0	0	0	0	505	507	507	508	31	31	
15	0	0	0	0	504	506	511	510	31	31	
0	0	0	0	0	506	502	515	513	31	31	
1	0	0	0	0	502	507	508	511	31	31	
2	0	0	0	0	504	507	516	512	31	31	
3	0	0	0	0	501	511	524	509	31	31	
4	0	0	0	0	502	516	510	512	31	31	
5	0	0	0	0	503	520	502	510	31	31	
6	0	0	0	0	501	521	508	508	31	31	
7	0	0	0	0	503	522	519	510	31	31	
8	0	0	0	0	503	519	517	511	31	32	
9	0	0	0	0	505	514	515	509	31	31	
10	0	0	0	0	505	511	511	510	31	32	
11	0	0	0	0	503	510	508	508	31	31	
12	0	0	0	0	503	508	501	510	31	31	
13	0	0	0	0	505	509	501	511	31	32	
14	0	0	0	0	505	511	499	512	31	32	
15	0	0	0	0	505	508	496	511	31	31	
0	0	0	0	0	503	507	501	513	31	31	
1	0	0	0	0	503	509	512	511	31	31	
2	0	0	0	0	501	511	508	508	31	32	
3	0	0	0	0	504	512	507	509	31	31	
4	0	0	0	0	504	511	511	513	31	31	
5	0	0	0	0	504	512	511	510	31	31	
6	0	0	0	0	505	511	523	509	31	31	
7	0	0	0	0	504	512	517	510	31	31	
8	0	0	0	0	500	511	520	511	31	31	
9	0	0	0	0	502	511	511	508	31	32	
10	0	0	0	0	504	511	510	508	31	31	
11	0	0	0	0	508	518	511	508	31	31	
12	0	0	0	0	504	523	512	512	31	31	
13	0	0	0	0	505	521	501	511	31	31	
14	0	0	0	0	504	519	500	511	31	32	
15	0	0	0	0	504	514	498	507	31	31	
0	0	0	0	0	504	513	507	508	31	31	
1	0	0	0	0	506	509	501	510	31	31	
2	0	0	0	0	503	509	501	510	31	31	
3	0	0	0	0	504	509	518	512	31	32	
4	0	0	0	0	503	506	512	511	31	31	
5	0	0	0	0	504	505	502	507	31	31	
6	0	0	0	0	506	513	511	511	31	32	
7	0	0	0	0	503	511	507	512	31	32	
8	0	0	0	0	499	515	510	511	31	31	
9	0	0	0	0	500	515	508	508	31	31	
10	0	0	0	0	503	516	513	512	31	31	
11	0	0	0	0	504	514	509	510	31	31	
12	0	0	0	0	504	514	503	509	31	31	
13	0	0	0	0	504	508	500	510	31	31	
14	0	0	0	0	505	510	501	510	31	31	
15	0	0	0	0	506	507	511	510	31	32	
0	0	0	0	0	505	512	507	510	31	31	
1	0	0	0	0	505	512	515	511	31	31	
2	0	0	0	0	506	510	510	511	31	31	
3	0	0	0	0	503	518	507	512	31	32	
4	0	0	0	0	500	517	505	512	31	31	
5	0	0	0	0	504	514	507	511	31	31	
6	0	0	0	0	501	513	508	510	31	31	
7	0	0	0	0	504	514	512	510	31	32	
8	0	0	0	0	502	513	519	510	31	32	
9	0	0	0	0	501	513	515	512	31	31	
10	0	0	0	0	502	514	512	510	31	32	
11	0	0	0	0	501	512	510	508	31	32	
12	0	0	0	0	501	510	512	511	31	31	
13	0	0	0	0	504	507	512	511	31	31	
14	0	0	0	0	505	505	513	508	31	32	
15	0	0	0	0	504	509	513	510	31	31	
0	0	0	0	0	503	507	508	508	31	31	
1	0	0	0	0	503	510	507	509	31	31	
2	0	0	0	0	506	511	511	508	31	32	
3	0	0	0	0	508	513	515	510	31	31	
4	0	0	0	0	508	517	517	510	31	31	
5	0	0	0	0	509	512	507	509	31	31	
6	0	0	0	0	504	512	512	510	31	31	
7	0	0	0	0	504	512	515	510	31	31	
8	0	0	0	0	503	516	514	511	31	31	
9	0	0	0	0	501	514	508	511	31	31	
10	0	0	0	0	504	514	496	509	31	32	
11	0	0	0	0	504	515	492	509	31	31	
12	0	0	0	0	503	516	501	510	31	31	
13	0	0	0	0	503	512	508	512	31	31	
14	0	0	0	0	506	513	511	512	31	31	
15	0	0	0	0	500	509	509	510	31	31	
0	0	0	0	0	501	511	513	511	31	31	
1	0	0	0	0	503	511	510	508	31	31	
2	0	0	0	0	504	514	509	509	31	31	
3	0	0	0	0	503	511	500	510	31	31	
4	0	0	0	0	504	512	506	511	31	31	
5	0	0	0	0	502	513	504	509	31	31	
6	0	0	0	0	502	510	509	511	31	31	
7	0	0	0	0	503	511	517	509	31	31	
8	0	0	0	0	503	508	515	510	31	31	
9	0	0	0	0	504	505	515	509	31	31	
10	0	0	0	0	502	507	515	511	31	31	
11	0	0	0	0	504	509	518	510	31	32	
12	0	0	0	0	505	511	516	509	31	31	
13	0	0	0	0	502	516	513	510	31	31	
14	0	0	0	0	499	512	515	511	31	32	
15	0	0	0	0	499	514	505	510	31	32	
0	0	0	0	0	500	518	509	510	31	32	
1	0	0	0	0	504	516	505	508	31	31	
2	0	0	0	0	505	517	504	510	31	31	
3	0	0	0	0	508	513	505	510	31	31	
4	0	0	0	0	508	511	502	513	31	31	
5	0	0	0	0	504	509	510	508	31	31	
6	0	0	0	0	503	513	505	510	31	31	
7	0	0	0	0	505	510	508	510	31	31	
8	0	0	0	0	505	512	502	510	31	31	
9	0	0	0	0	505	514	502	511	31	32	
10	0	0	0	0	503	511	507	508	31	31	
11	0	0	0	0	504	512	523	510	31	31	
12	0	0	0	0	508	510	524	510	31	31	
13	0	0	0	0	505	512	515	511	31	31	
14	0	0	0	0	503	508	511	511	31	31	
15	0	0	0	0	503	503	511	511	31	31	
0	0	0	0	0	502	505	508	510	31	31	
1	0	0	0	0	502	509	510	511	31	32	
2	0	0	0	0	500	516	512	511	31	32	
3	0	0	0	0	501	522	516	512	31	32	
4	0	0	0	0	504	519	507	511	31	31	
5	0	0	0	0	503	521	504	512	31	31	
6	0	0	0	0	505	521	505	510	31	31	
7	0	0	0	0	506	519	499	509	31	31	
8	0	0	0	0	504	517	510	507	31	31	
9	0	0	0	0	504	513	508	510	31	32	
10	0	0	0	0	504	513	504	510	31	31	
11	0	0	0	0	503	511	505	511	31	32	
12	0	0	0	0	504	509	512	512	31	32	
13	0	0	0	0	505	505	504	511	31	31	
14	0	0	0	0	504	503	503	510	31	31	
15	0	0	0	0	502	503	516	511	31	31	
0	0	0	0	0	503	505	522	508	31	31	
1	0	0	0	0	501	510	510	510	31	31	
2	0	0	0	0	504	515	499	510	31	31	
3	0	0	0	0	503	518	505	510	31	31	
4	0	0	0	0	500	518	515	510	31	31	
5	0	0	0	0	501	511	510	510	31	31	
6	0	0	0	0	499	511	505	509	31	31	
7	0	0	0	0	502	508	504	509	31	31	
8	0	0	0	0	503	509	496	509	31	32	
9	0	0	0	0	505	509	504	511	31	31	
10	0	0	0	0	506	512	504	508	31	31	
11	0	0	0	0	508	521	509	510	31	32	
12	0	0	0	0	505	523	514	511	31	31	
13	0	0	0	0	505	516	511	512	31	31	
14	0	0	0	0	503	515	496	510	31	31	
15	0	0	0	0	504	512	495	508	31	32	
0	0	0	0	0	504	509	492	509	31	31	
1	0	0	0	0	503	512	496	512	31	31	
2	0	0	0	0	502	513	494	510	31	31	
3	0	0	0	0	504	510	498	510	31	31	
4	0	0	0	0	503	510	494	510	31	31	
5	0	0	0	0	504	507	505	511	31	31	
6	0	0	0	0	505	510	499	512	31	31	
7	0	0	0	0	504	510	511	510	31	31	
8	0	0	0	0	503	513	510	510	31	31	
9	0	0	0	0	503	514	510	511	31	31	
10	0	0	0	0	504	513	504	510	31	31	
11	0	0	0	0	503	513	499	510	31	31	
12	0	0	0	0	501	513	510	511	31	32	
13	0	0	0	0	503	511	512	511	31	31	
14	0	0	0	0	507	513	515	510	31	31	
15	0	0	0	0	503	511	520	511	31	31	
0	0	0	0	0	503	513	519	510	31	31	
1	0	0	0	0	505	512	513	507	31	31	
2	0	0	0	0	505	515	508	509	31	31	
3	0	0	0	0	505	516	507	508	31	32	
4	0	0	0	0	502	512	507	510	31	31	
5	0	0	0	0	500	512	512	511	31	31	
6	0	0	0	0	500	512	508	509	31	32	
7	0	0	0	0	502	514	517	512	31	32	
8	0	0	0	0	503	519	519	512	31	32	
9	0	0	0	0	504	516	522	511	31	31	
10	0	0	0	0	505	511	515	510	31	31	
11	0	0	0	0	507	509	522	510	31	31	
12	0	0	0	0	504	508	519	510	31	31	
13	0	0	0	0	506	508	524	511	31	32	
14	0	0	0	0	505	513	513	512	31	31	
15	0	0	0	0	504	508	505	511	31	31	
0	0	0	0	0	502	508	509	510	31	31	
1	0	0	0	0	502	511	514	512	31	31	
2	0	0	0	0	500	513	516	511	31	31	
3	0	0	0	0	500	512	516	509	31	31	
4	0	0	0	0	502	512	515	512	31	32	
5	0	0	0	0	503	507	515	509	31	32	
6	0	0	0	0	502	508	508	509	31	31	
7	0	0	0	0	503	515	513	510	31	31	
8	0	0	0	0	504	515	503	509	31	31	
9	0	0	0	0	501	519	511	510	31	31	
10	0	0	0	0	504	520	511	510	31	31	
11	0	0	0	0	506	520	516	508	31	31	
12	0	0	0	0	502	517	516	513	31	31	
13	0	0	0	0	503	514	516	509	31	31	
14	0	0	0	0	505	512	513	512	31	31	
15	0	0	0	0	506	508	506	512	31	31	
0	0	0	0	0	507	507	509	513	31	31	
1	0	0	0	0	506	508	510	507	31	31	
2	0	0	0	0	505	508	509	508	31	31	
3	0	0	0	0	504	507	514	510	31	31	
4	0	0	0	0	505	510	509	508	31	31	
5	0	0	0	0	502	510	512	510	31	31	
6	0	0	0	0	502	511	507	510	31	31	
7	0	0	0	0	503	511	505	512	31	32	
8	0	0	0	0	503	511	501	508	31	32	
9	0	0	0	0	504	510	505	510	31	32	
10	0	0	0	0	503	512	509	512	31	31	
11	0	0	0	0	502	511	519	509	31	31	
12	0	0	0	0	500	511	512	510	31	31	
13	0	0	0	0	500	515	514	511	31	31	
14	0	0	0	0	504	515	520	509	31	31	
15	0	0	0	0	504	517	517	510	31	31	
0	0	0	0	0	505	519	515	512	31	32	
1	0	0	0	0	507	515	512	511	31	32	
2	0	0	0	0	504	514	509	510	31	31	
3	0	0	0	0	503	514	510	511	31	31	
4	0	0	0	0	500	515	515	510	31	31	
5	0	0	0	0	502	514	512	510	31	31	
6	0	0	0	0	501	517	508	508	31	31	
7	0	0	0	0	503	515	506	509	31	31	
8	0	0	0	0	504	513	508	509	31	31	
9	0	0	0	0	505	510	508	511	31	31	
10	0	0	0	0	504	508	504	510	31	32	
11	0	0	0	0	505	504	513	509	31	32	
12	0	0	0	0	507	504	512	511	31	32	
13	0	0	0	0	503	507	503	508	31	31	
14	0	0	0	0	503	507	509	509	31	31	
15	0	0	0	0	502	507	510	510	31	31	
0	0	0	0	0	504	508	508	509	31	31	
1	0	0	0	0	506	511	514	510	31	31	
2	0	0	0	0	507	513	511	511	31	31	
3	0	0	0	0	504	519	513	509	31	31	
4	0	0	0	0	506	517	511	511	31	31	
5	0	0	0	0	503	519	504	512	31	31	
6	0	0	0	0	501	520	512	510	31	32	
7	0	0	0	0	499	517	507	511	31	32	
8	0	0	0	0	501	514	501	508	31	32	
9	0	0	0	0	503	512	509	511	31	31	
10	0	0	0	0	504	513	510	509	31	31	
11	0	0	0	0	503	511	498	511	31	31	
12	0	0	0	0	503	511	503	512	31	32	
13	0	0	0	0	503	511	515	511	31	32	
14	0	0	0	0	503	513	518	509	31	32	
15	0	0	0	0	504	511	508	511	31	31	
0	0	0	0	0	504	509	509	512	31	31	
1	0	0	0	0	504	509	511	509	31	31	
2	0	0	0	0	504	508	519	508	31	31	
3	0	0	0	0	502	511	508	509	31	31	
4	0	0	0	0	500	509	509	510	31	32	
5	0	0	0	0	504	512	515	513	31	31	
6	0	0	0	0	503	510	514	510	31	32	
7	0	0	0	0	504	515	512	509	31	31	
8	0	0	0	0	504	513	510	510	31	31	
9	0	0	0	0	504	512	508	510	31	31	
10	0	0	0	0	501	515	503	510	31	31	
11	0	0	0	0	499	518	507	510	31	31	
12	0	0	0	0	499	518	515	509	31	31	
13	0	0	0	0	502	512	517	509	31	32	
14	0	0	0	0	505	515	510	510	31	31	
15	0	0	0	0	507	515	503	511	31	31	
0	0	0	0	0	507	515	510	512	31	31	
1	0	0	0	0	510	515	503	508	31	32	
2	0	0	0	0	510	512	511	509	31	32	
3	0	0	0	0	509	508	510	510	31	32	
4	0	0	0	0	510	505	502	510	31	32	
5	0	0	0	0	505	508	500	510	31	32	
6	0	0	0	0	504	510	503	511	31	32	
7	0	0	0	0	505	509	505	511	31	31	
8	0	0	0	0	502	512	510	510	31	32	
9	0	0	0	0	500	511	503	511	31	31	
10	0	0	0	0	501	513	502	509	31	31	
11	0	0	0	0	498	511	513	508	31	31	
12	0	0	0	0	499	512	510	509	31	31	
13	0	0	0	0	502	511	512	509	31	32	
14	0	0	0	0	501	509	511	508	31	32	
15	0	0	0	0	501	511	512	510	31	31	
0	0	0	0	0	505	515	518	510	31	31	
1	0	0	0	0	504	513	511	510	31	31	
2	0	0	0	0	508	513	513	512	31	31	
3	0	0	0	0	509	516	510	510	31	31	
4	0	0	0	0	507	516	501	508	31	31	
5	0	0	0	0	507	515	513	510	31	32	
6	0	0	0	0	505	514	507	508	31	31	
7	0	0	0	0	505	508	504	511	31	31	
8	0	0	0	0	503	512	505	512	31	31	
9	0	0	0	0	503	508	507	511	31	31	
10	0	0	0	0	502	508	499	512	31	31	
11	0	0	0	0	500	512	510	512	31	31	
12	0	0	0	0	500	515	501	510	31	32	
13	0	0	0	0	500	514	499	512	31	31	
14	0	0	0	0	499	512	510	512	31	31	
15	0	0	0	0	499	513	515	510	31	31	
0	0	0	0	0	505	514	512	511	31	32	
1	0	0	0	0	504	508	508	512	31	32	
2	0	0	0	0	504	511	510	507	31	31	
3	0	0	0	0	501	511	508	506	31	31	
4	0	0	0	0	499	509	516	508	31	31	
5	0	0	0	0	500	510	516	510	31	31	
6	0	0	0	0	503	510	513	510	31	32	
7	0	0	0	0	500	513	513	511	31	32	
8	0	0	0	0	501	515	508	510	31	32	
9	0	0	0	0	508	515	513	511	31	32	
10	0	0	0	0	508	515	508	510	31	32	
11	0	0	0	0	510	515	505	510	31	32	
12	0	0	0	0	511	516	512	512	31	32	
13	0	0	0	0	506	512	502	512	31	31	
14	0	0	0	0	504	512	522	511	31	31	
15	0	0	0	0	503	512	515	510	31	31	
0	0	0	0	0	503	511	508	511	31	31	
1	0	0	0	0	509	512	508	508	31	31	
2	0	0	0	0	505	517	511	510	31	31	
3	0	0	0	0	492	516	516	510	31	31	
4	0	0	0	0	489	514	511	511	31	31	
5	0	0	0	0	494	514	506	510	31	32	
6	0	0	0	0	506	520	513	511	31	31	
7	0	0	0	0	509	515	507	510	31	31	
8	0	0	0	0	511	513	503	509	31	31	
9	0	0	0	0	507	511	503	508	31	31	
10	0	0	0	0	507	505	502	510	31	31	
11	0	0	0	0	505	499	505	509	31	31	
12	0	0	0	0	507	493	508	508	31	32	
13	0	0	0	0	504	500	513	509	31	31	
14	0	0	0	0	504	503	518	510	31	31	
15	0	0	0	0	499	512	521	510	31	32	
0	0	0	0	0	497	517	515	509	31	32	
1	0	0	0	0	499	519	515	511	31	32	
2	0	0	0	0	499	519	511	509	31	31	
3	0	0	0	0	500	516	511	512	31	31	
4	0	0	0	0	498	508	513	511	31	31	
5	0	0	0	0	494	513	517	512	31	32	
6	0	0	0	0	502	511	505	511	31	31	
7	0	0	0	0	506	517	505	511	31	31	
8	0	0	0	0	511	518	510	511	31	31	
9	0	0	0	0	512	511	509	509	31	31	
10	0	0	0	0	513	519	510	510	31	31	
11	0	0	0	0	514	530	503	509	31	31	
12	0	0	0	0	510	531	510	511	31	31	
13	0	0	0	0	506	522	505	512	31	31	
14	0	0	0	0	501	513	497	510	31	31	
15	0	0	0	0	502	504	503	511	31	31	
0	0	0	0	0	504	499	509	511	31	31	
1	0	0	0	0	502	493	511	511	31	31	
2	0	0	0	0	503	495	511	507	31	31	
3	0	0	0	0	500	499	510	510	31	31	
4	0	0	0	0	499	509	509	510	31	31	
5	0	0	0	0	502	517	510	508	31	32	
6	0	0	0	0	499	515	512	510	31	32	
7	0	0	0	0	502	513	510	511	31	31	
8	0	0	0	0	509	511	505	510	31	31	
9	0	0	0	0	506	511	513	508	31	31	
10	0	0	0	0	501	517	508	508	31	32	
11	0	0	0	0	504	519	509	508	31	31	
12	0	0	0	0	508	519	510	511	31	31	
13	0	0	0	0	504	509	509	511	31	31	
14	0	0	0	0	504	508	508	513	31	31	
15	0	0	0	0	504	511	505	511	31	32	
0	0	0	0	0	504	512	509	511	31	31	
1	0	0	0	0	504	511	502	512	31	31	
2	0	0	0	0	502	512	521	510	31	31	
3	0	0	0	0	495	513	506	508	31	31	
4	0	0	0	0	491	514	503	511	31	31	
5	0	0	0	0	489	515	515	510	31	31	
6	0	0	0	0	500	509	512	510	31	32	
7	0	0	0	0	514	525	502	508	31	31	
8	0	0	0	0	517	539	503	509	31	31	
9	0	0	0	0	517	528	509	509	31	31	
10	0	0	0	0	511	524	515	511	31	31	
11	0	0	0	0	503	520	515	511	31	31	
12	0	0	0	0	502	507	509	510	31	31	
13	0	0	0	0	503	488	502	508	31	31	
14	0	0	0	0	498	487	509	508	31	31	
15	0	0	0	0	498	492	518	511	31	32	
0	0	0	0	0	500	501	510	513	31	32	
1	0	0	0	0	504	512	508	513	31	31	
2	0	0	0	0	503	504	511	512	31	31	
3	0	0	0	0	500	506	510	507	31	31	
4	0	0	0	0	504	512	513	504	31	31	
5	0	0	0	0	508	516	508	505	31	32	
6	0	0	0	0	510	510	502	507	31	32	
7	0	0	0	0	510	518	499	510	31	32	
8	0	0	0	0	506	518	508	511	31	31	
9	0	0	0	0	505	514	505	510	31	31	
10	0	0	0	0	505	517	507	509	31	31	
11	0	0	0	0	505	521	500	508	31	31	
12	0	0	0	0	502	510	511	511	31	31	
13	0	0	0	0	499	511	507	511	31	32	
14	0	0	0	0	495	512	512	512	31	32	
15	0	0	0	0	493	508	508	513	31	31	
0	0	0	0	0	492	507	511	509	31	32	
1	0	0	0	0	494	513	506	510	31	31	
2	0	0	0	0	503	519	499	510	31	31	
3	0	0	0	0	507	520	492	507	31	31	
4	0	0	0	0	509	513	488	511	31	31	
5	0	0	0	0	507	516	493	507	31	31	
6	0	0	0	0	507	516	496	508	31	31	
7	0	0	0	0	505	516	507	508	31	31	
8	0	0	0	0	503	518	505	509	31	32	
9	0	0	0	0	504	516	506	510	31	32	
10	0	0	0	0	502	514	503	509	31	32	
11	0	0	0	0	503	515	498	511	31	31	
12	0	0	0	0	503	511	511	511	31	31	
13	0	0	0	0	503	508	510	513	31	31	
14	0	0	0	0	504	505	503	511	31	32	
15	0	0	0	0	506	509	505	510	31	32	
0	0	0	0	0	505	514	494	511	31	32	
1	0	0	0	0	503	515	508	511	31	32	
2	0	0	0	0	502	514	515	510	31	32	
3	0	0	0	0	504	514	511	511	31	31	
4	0	0	0	0	505	511	515	511	31	31	
5	0	0	0	0	506	507	512	513	31	31	
6	0	0	0	0	511	503	511	509	31	31	
7	0	0	0	0	512	503	519	510	31	31	
8	0	0	0	0	511	508	516	511	31	31	
9	0	0	0	0	510	508	513	507	31	32	
10	0	0	0	0	509	510	503	509	31	32	
11	0	0	0	0	503	513	505	510	31	32	
12	0	0	0	0	504	515	515	510	31	32	
13	0	0	0	0	508	514	513	509	31	32	
14	0	0	0	0	508	512	520	508	31	31	
15	0	0	0	0	498	512	513	510	31	31	
0	0	0	0	0	496	514	510	509	31	31	
1	0	0	0	0	497	515	515	511	31	31	
2	0	0	0	0	497	515	513	512	31	31	
3	0	0	0	0	503	514	510	514	31	32	
4	0	0	0	0	499	516	511	513	31	32	
5	0	0	0	0	497	514	511	510	31	31	
6	0	0	0	0	493	518	514	511	31	31	
7	0	0	0	0	492	515	512	512	31	30	
8	0	0	0	0	496	516	509	512	31	29	
9	0	0	0	0	503	517	504	509	31	30	
10	0	0	0	0	515	515	505	510	31	32	
11	0	0	0	0	518	513	502	509	31	33	
12	0	0	0	0	516	510	507	511	31	32	
13	0	0	0	0	526	506	511	511	31	32	
14	0	0	0	0	530	508	511	508	31	32	
15	0	0	0	0	528	510	506	507	31	31	
0	0	0	0	0	510	510	512	510	31	31	
1	0	0	0	0	489	509	513	510	31	30	
2	0	0	0	0	476	511	507	511	31	31	
3	0	0	0	0	474	513	501	511	31	30	
4	0	0	0	0	491	512	497	510	31	31	
5	0	0	0	0	498	513	507	512	31	33	
6	0	0	0	0	515	515	515	510	31	34	
7	0	0	0	0	512	514	518	511	31	32	
8	0	0	0	0	498	514	525	512	31	31	
9	0	0	0	0	483	513	505	510	31	31	
10	0	0	0	0	484	512	502	510	31	31	
11	0	0	0	0	502	515	495	512	31	30	
12	0	0	0	0	531	513	501	510	31	33	
13	0	0	0	0	540	506	495	508	31	34	
14	0	0	0	0	525	508	504	510	31	33	
15	0	0	0	0	490	512	506	510	31	32	
0	0	0	0	0	468	515	523	509	31	32	
1	0	0	0	0	455	516	514	509	31	32	
2	0	0	0	0	463	517	520	509	31	29	
3	0	0	0	0	489	509	497	511	31	30	
4	0	0	0	0	515	513	496	508	31	30	
5	0	0	0	0	535	511	499	507	31	29	
6	0	0	0	0	556	504	502	509	31	31	
7	0	0	0	0	577	512	512	507	31	33	
8	0	0	0	0	572	513	528	509	31	32	
9	0	0	0	0	551	512	531	512	31	30	
10	0	0	0	0	505	507	519	513	31	33	
11	0	0	0	0	480	506	520	509	31	34	
12	0	0	0	0	473	511	518	511	31	34	
13	0	0	0	0	457	516	514	512	31	35	
14	0	0	0	0	428	515	523	512	31	35	
15	0	0	0	0	420	514	531	515	31	34	
0	0	0	0	0	443	515	521	511	31	33	
1	0	0	0	0	464	513	511	510	31	31	
2	0	0	0	0	487	507	508	507	31	30	
3	0	0	0	0	500	510	495	506	31	29	
4	0	0	0	0	530	530	489	509	31	28	
5	0	0	0	0	527	534	487	512	31	29	
6	0	0	0	0	516	523	496	512	31	30	
7	0	0	0	0	523	519	494	509	31	32	
8	0	0	0	0	529	513	501	509	31	31	
9	0	0	0	0	537	505	511	509	31	30	
10	0	0	0	0	546	505	515	508	31	31	
11	0	0	0	0	548	481	504	510	31	31	
12	0	0	0	0	500	518	509	510	31	31	
13	0	0	0	0	509	525	516	511	31	29	
14	0	0	0	0	508	511	506	514	31	25	
15	0	0	0	0	511	510	501	514	31	26	
0	0	0	0	0	520	509	499	509	31	30	
1	0	0	0	0	532	506	502	510	31	33	
2	0	0	0	0	518	513	508	510	31	36	
3	0	0	0	0	482	499	516	508	31	37	
4	0	0	0	0	461	513	522	508	31	37	
5	0	0	0	0	476	508	525	510	31	34	
6	0	0	0	0	493	526	515	510	31	32	
7	0	0	0	0	486	521	519	508	31	30	
8	0	0	0	0	475	527	525	508	31	29	
9	0	0	0	0	522	516	529	508	31	31	
10	0	0	0	0	550	511	518	509	31	31	
11	0	0	0	0	576	514	512	506	31	32	
12	0	0	0	0	542	501	519	512	31	33	
13	0	0	0	0	479	495	521	511	31	32	
14	0	0	0	0	447	506	516	511	31	32	
15	0	0	0	0	445	505	506	510	31	32	
0	0	0	0	0	439	505	511	512	31	32	
1	0	0	0	0	447	494	505	511	31	31	
2	0	0	0	0	474	496	514	513	31	30	
3	0	0	0	0	496	529	511	511	31	28	
4	0	0	0	0	514	544	505	511	31	28	
5	0	0	0	0	548	535	490	513	31	22	
6	0	0	0	0	567	513	492	511	31	25	
7	0	0	0	0	569	514	499	510	31	31	
8	0	0	0	0	568	504	505	510	31	35	
9	0	0	0	0	530	512	518	506	31	38	
10	0	0	0	0	486	527	526	507	31	38	
11	0	0	0	0	486	531	523	509	31	37	
12	0	0	0	0	491	542	522	504	31	35	
13	0	0	0	0	505	525	508	510	31	34	
14	0	0	0	0	490	497	515	508	31	34	
15	0	0	0	0	463	488	516	510	31	33	
0	0	0	0	0	465	511	507	514	31	31	
1	0	0	0	0	495	508	508	512	31	30	
2	0	0	0	0	518	514	506	512	31	29	
3	0	0	0	0	511	515	514	510	31	28	
4	0	0	0	0	496	515	513	510	31	29	
5	0	0	0	0	483	494	513	508	31	30	
6	0	0	0	0	469	492	515	505	31	31	
7	0	0	0	0	489	542	500	511	31	31	
8	0	0	0	0	505	543	495	515	31	31	
9	0	0	0	0	514	532	508	514	31	30	
10	0	0	0	0	536	511	500	514	31	30	
11	0	0	0	0	549	473	504	510	31	31	
12	0	0	0	0	543	451	495	511	31	29	
13	0	0	0	0	539	468	500	512	31	29	
14	0	0	0	0	530	472	497	511	31	31	
15	0	0	0	0	524	492	512	511	31	31	
0	0	0	0	0	516	514	515	511	31	32	
1	0	0	0	0	508	523	504	510	31	33	
2	0	0	0	0	507	524	512	510	31	33	
3	0	0	0	0	492	518	508	507	31	32	
4	0	0	0	0	519	519	512	505	31	31	
5	0	0	0	0	509	533	502	508	31	29	
6	0	0	0	0	504	525	496	514	31	28	
7	0	0	0	0	514	513	501	512	31	33	
8	0	0	0	0	510	505	509	510	31	35	
9	0	0	0	0	514	511	522	510	31	34	
10	0	0	0	0	502	523	520	511	31	32	
11	0	0	0	0	480	530	525	509	31	30	
12	0	0	0	0	455	529	519	509	31	31	
13	0	0	0	0	439	531	524	505	31	34	
14	0	0	0	0	420	523	532	508	31	37	
15	0	0	0	0	443	514	528	510	31	36	
0	0	0	0	0	488	514	516	511	32	34	
1	0	0	0	0	523	512	513	512	32	32	
2	0	0	0	0	520	511	523	508	31	31	
3	0	0	0	0	529	512	519	508	31	30	
4	0	0	0	0	524	505	510	513	30	30	
5	0	0	0	0	525	503	503	513	30	29	
6	0	0	0	0	536	502	503	510	31	29	
7	0	0	0	0	521	502	504	508	31	30	
8	0	0	0	0	508	507	518	508	31	31	
9	0	0	0	0	495	512	513	509	31	32	
10	0	0	0	0	492	509	517	509	31	32	
11	0	0	0	0	507	512	508	507	31	30	
12	0	0	0	0	487	513	512	512	31	28	
13	0	0	0	0	483	519	509	517	31	29	
14	0	0	0	0	515	523	495	513	31	31	
15	0	0	0	0	516	518	496	511	31	32	
0	0	0	0	0	493	509	497	505	31	32	
1	0	0	0	0	489	509	512	509	31	33	
2	0	0	0	0	496	511	512	510	31	32	
3	0	0	0	0	500	511	505	505	32	33	
4	0	0	0	0	508	510	509	507	31	32	
5	0	0	0	0	513	508	508	508	32	32	
6	0	0	0	0	509	512	507	511	32	32	
7	0	0	0	0	514	511	513	511	31	31	
8	0	0	0	0	509	514	513	509	31	31	
9	0	0	0	0	490	513	515	506	30	32	
10	0	0	0	0	486	506	508	510	30	31	
11	0	0	0	0	499	505	517	514	31	31	
12	0	0	0	0	498	510	510	512	31	30	
13	0	0	0	0	502	515	515	511	31	31	
14	0	0	0	0	500	512	506	512	31	31	
15	0	0	0	0	492	520	500	512	32	31	
0	0	0	0	0	488	519	492	508	31	31	
1	0	0	0	0	497	504	489	508	32	32	
2	0	0	0	0	519	500	493	509	32	33	
3	0	0	0	0	534	499	478	513	32	32	
4	0	0	0	0	530	515	477	513	31	30	
5	0	0	0	0	504	526	492	511	31	30	
6	0	0	0	0	477	518	496	508	31	31	
7	0	0	0	0	494	517	495	507	31	32	
8	0	0	0	0	528	519	486	506	31	30	
9	0	0	0	0	514	527	502	510	31	30	
10	0	0	0	0	512	517	501	511	31	31	
11	0	0	0	0	539	506	503	509	31	33	
12	0	0	0	0	545	513	504	509	31	32	
13	0	0	0	0	518	507	507	510	31	29	
14	0	0	0	0	512	518	500	509	31	27	
15	0	0	0	0	500	512	497	511	31	29	
0	0	0	0	0	483	508	506	509	32	34	
1	0	0	0	0	476	506	517	510	32	38	
2	0	0	0	0	457	501	526	513	31	38	
3	0	0	0	0	469	492	531	512	31	36	
4	0	0	0	0	469	511	522	509	31	34	
5	0	0	0	0	468	515	520	509	31	32	
6	0	0	0	0	475	521	511	509	31	31	
7	0	0	0	0	499	521	502	510	31	30	
8	0	0	0	0	491	520	498	510	31	30	
9	0	0	0	0	495	519	496	509	31	30	
10	0	0	0	0	511	517	504	511	31	30	
11	0	0	0	0	526	517	512	509	31	30	
12	0	0	0	0	527	518	509	510	31	30	
13	0	0	0	0	524	512	512	511	31	30	
14	0	0	0	0	529	516	522	511	31	29	
15	0	0	0	0	526	527	518	514	31	29	
0	0	0	0	0	521	515	511	512	31	30	
1	0	0	0	0	505	501	508	509	31	32	
2	0	0	0	0	491	497	510	508	31	34	
3	0	0	0	0	487	503	515	511	31	33	
4	0	0	0	0	511	507	514	510	31	33	
5	0	0	0	0	512	499	509	510	31	32	
6	0	0	0	0	511	502	514	509	31	31	
7	0	0	0	0	490	499	508	508	31	30	
8	0	0	0	0	490	517	509	511	31	29	
9	0	0	0	0	498	519	494	512	31	29	
10	0	0	0	0	485	527	515	509	31	31	
11	0	0	0	0	508	524	509	510	31	33	
12	0	0	0	0	524	494	512	507	31	34	
13	0	0	0	0	510	499	527	510	31	32	
14	0	0	0	0	504	518	523	510	31	31	
15	0	0	0	0	506	531	518	511	31	32	
0	0	0	0	0	504	529	524	508	31	32	
1	0	0	0	0	518	524	513	509	31	32	
2	0	0	0	0	522	510	511	511	31	32	
3	0	0	0	0	507	501	510	512	31	31	
4	0	0	0	0	484	496	502	510	31	33	
5	0	0	0	0	477	516	514	512	31	32	
6	0	0	0	0	472	517	496	511	31	31	
7	0	0	0	0	492	526	511	508	31	29	
8	0	0	0	0	516	525	521	509	31	31	
9	0	0	0	0	506	524	509	512	31	33	
10	0	0	0	0	501	495	503	512	31	34	
11	0	0	0	0	507	482	507	510	31	33	
12	0	0	0	0	511	499	504	510	31	32	
13	0	0	0	0	510	509	513	509	31	32	
14	0	0	0	0	512	516	517	509	31	32	
15	0	0	0	0	519	514	514	507	31	31	
0	0	0	0	0	521	530	514	510	31	31	
1	0	0	0	0	502	525	509	511	31	31	
2	0	0	0	0	500	505	503	512	31	30	
3	0	0	0	0	512	520	518	510	31	29	
4	0	0	0	0	497	514	510	512	31	29	
5	0	0	0	0	498	512	507	510	31	29	
6	0	0	0	0	502	509	496	505	31	30	
7	0	0	0	0	549	519	508	504	31	32	
8	0	0	0	0	530	492	511	503	31	32	
9	0	0	0	0	513	503	496	506	31	33	
10	0	0	0	0	466	513	513	505	31	33	
11	0	0	0	0	444	524	519	509	31	33	
12	0	0	0	0	435	521	510	519	31	31	
13	0	0	0	0	465	520	504	521	31	30	
14	0	0	0	0	456	507	499	521	31	31	
15	0	0	0	0	461	498	500	516	31	31	
0	0	0	0	0	479	507	518	512	31	30	
1	0	0	0	0	512	514	509	515	31	28	
2	0	0	0	0	525	529	496	513	31	29	
3	0	0	0	0	519	521	494	509	31	31	
4	0	0	0	0	510	520	521	497	31	34	
5	0	0	0	0	496	510	543	495	31	36	
6	0	0	0	0	486	521	531	500	31	36	
7	0	0	0	0	492	517	521	506	31	35	
8	0	0	0	0	503	512	526	509	31	33	
9	0	0	0	0	501	488	515	511	31	32	
10	0	0	0	0	492	494	510	512	31	30	
11	0	0	0	0	476	488	514	515	31	30	
12	0	0	0	0	484	493	508	519	31	29	
13	0	0	0	0	500	488	496	519	31	27	
14	0	0	0	0	493	508	497	515	31	29	
15	0	0	0	0	485	502	500	519	31	32	
0	0	0	0	0	480	522	504	519	31	34	
1	0	0	0	0	480	536	509	513	31	34	
2	0	0	0	0	501	556	512	508	31	32	
3	0	0	0	0	514	556	511	510	31	31	
4	0	0	0	0	534	539	515	510	31	31	
5	0	0	0	0	563	528	510	508	31	32	
6	0	0	0	0	527	523	516	502	31	33	
7	0	0	0	0	484	510	519	496	31	34	
8	0	0	0	0	477	480	496	497	31	34	
9	0	0	0	0	483	477	502	500	31	32	
10	0	0	0	0	502	486	494	510	31	31	
11	0	0	0	0	503	500	494	518	31	30	
12	0	0	0	0	515	520	497	521	31	30	
13	0	0	0	0	499	501	506	517	31	28	
14	0	0	0	0	496	519	516	512	31	25	
15	0	0	0	0	508	527	518	497	31	28	
0	0	0	0	0	519	531	513	492	31	31	
1	0	0	0	0	514	516	520	500	31	33	
2	0	0	0	0	486	507	524	513	31	33	
3	0	0	0	0	492	517	525	517	31	34	
4	0	0	0	0	484	511	523	521	31	34	
5	0	0	0	0	473	497	515	528	31	33	
6	0	0	0	0	493	503	517	527	31	34	
7	0	0	0	0	526	544	497	510	31	34	
8	0	0	0	0	528	558	499	507	31	33	
9	0	0	0	0	515	514	499	507	31	32	
10	0	0	0	0	534	475	507	516	31	31	
11	0	0	0	0	518	473	515	519	31	30	
12	0	0	0	0	527	453	503	508	31	27	
13	0	0	0	0	522	525	494	511	31	25	
14	0	0	0	0	504	546	502	509	31	23	
15	0	0	0	0	499	540	502	508	31	28	
0	0	0	0	0	495	518	513	505	31	35	
1	0	0	0	0	472	513	513	508	31	38	
2	0	0	0	0	459	519	516	508	31	39	
3	0	0	0	0	450	485	516	502	31	37	
4	0	0	0	0	499	479	522	504	31	34	
5	0	0	0	0	516	487	520	504	31	31	
6	0	0	0	0	513	491	513	508	31	29	
7	0	0	0	0	520	547	499	504	31	28	
8	0	0	0	0	511	528	510	507	31	29	
9	0	0	0	0	512	493	507	506	31	33	
10	0	0	0	0	506	504	504	506	31	33	
11	0	0	0	0	502	516	504	515	31	33	
12	0	0	0	0	494	537	509	517	31	31	
13	0	0	0	0	500	550	504	516	31	29	
14	0	0	0	0	503	497	503	513	31	30	
15	0	0	0	0	504	506	505	505	31	30	
0	0	0	0	0	513	551	503	511	31	31	
1	0	0	0	0	515	551	510	514	31	31	
2	0	0	0	0	518	498	507	505	31	30	
3	0	0	0	0	494	462	512	505	31	31	
4	0	0	0	0	487	495	510	511	31	32	
5	0	0	0	0	512	526	523	506	31	31	
6	0	0	0	0	522	528	522	508	31	30	
7	0	0	0	0	496	538	524	517	31	32	
8	0	0	0	0	515	535	523	520	31	33	
9	0	0	0	0	545	494	508	515	31	33	
10	0	0	0	0	550	480	505	509	31	33	
11	0	0	0	0	533	497	511	504	31	34	
12	0	0	0	0	508	489	512	498	31	33	
13	0	0	0	0	476	490	516	503	31	33	
14	0	0	0	0	474	522	509	511	31	31	
15	0	0	0	0	463	529	512	510	31	30	
0	0	0	0	0	455	525	514	512	31	30	
1	0	0	0	0	476	498	512	521	31	30	
2	0	0	0	0	484	517	508	523	31	31	
3	0	0	0	0	500	519	504	524	31	30	
4	0	0	0	0	519	496	500	516	31	30	
5	0	0	0	0	525	512	505	512	31	31	
6	0	0	0	0	523	519	511	512	31	31	
7	0	0	0	0	503	522	515	508	31	29	
8	0	0	0	0	495	533	510	510	31	29	
9	0	0	0	0	506	534	510	508	31	31	
10	0	0	0	0	515	514	507	503	31	33	
11	0	0	0	0	524	490	508	497	31	34	
12	0	0	0	0	539	488	517	492	31	33	
13	0	0	0	0	530	497	520	486	31	32	
14	0	0	0	0	528	511	511	498	31	31	
15	0	0	0	0	516	490	522	512	31	30	
0	0	0	0	0	503	491	518	520	31	31	
1	0	0	0	0	490	511	519	523	31	32	
2	0	0	0	0	482	521	515	522	31	33	
3	0	0	0	0	487	502	516	520	31	33	
4	0	0	0	0	499	496	508	519	31	32	
5	0	0	0	0	518	507	512	518	31	30	
6	0	0	0	0	535	496	506	509	31	30	
7	0	0	0	0	536	548	516	506	31	32	
8	0	0	0	0	541	580	493	501	31	33	
9	0	0	0	0	521	557	517	499	31	33	
10	0	0	0	0	457	527	516	498	31	32	
11	0	0	0	0	458	517	524	500	31	30	
12	0	0	0	0	421	499	503	508	31	30	
13	0	0	0	0	451	523	510	518	31	30	
14	0	0	0	0	504	526	499	526	31	30	
15	0	0	0	0	512	492	496	531	31	31	
0	0	0	0	0	507	479	483	515	31	32	
1	0	0	0	0	511	467	493	513	32	32	
2	0	0	0	0	531	497	505	510	32	27	
3	0	0	0	0	553	492	514	501	31	28	
4	0	0	0	0	547	495	528	492	31	31	
5	0	0	0	0	523	534	543	494	31	34	
6	0	0	0	0	503	537	539	502	31	35	
7	0	0	0	0	494	537	507	507	31	34	
8	0	0	0	0	472	526	509	510	31	33	
9	0	0	0	0	477	505	500	519	31	33	
10	0	0	0	0	491	485	497	530	31	32	
11	0	0	0	0	492	480	492	531	31	32	
12	0	0	0	0	497	504	503	519	31	31	
13	0	0	0	0	505	504	499	508	32	31	
14	0	0	0	0	519	512	509	504	32	31	
15	0	0	0	0	524	512	518	505	32	31	
0	0	0	0	0	521	518	515	505	31	31	
1	0	0	0	0	521	536	522	505	30	31	
2	0	0	0	0	511	523	531	508	30	29	
3	0	0	0	0	513	502	530	512	30	28	
4	0	0	0	0	517	527	528	510	30	29	
5	0	0	0	0	519	519	525	505	31	31	
6	0	0	0	0	508	525	521	505	31	33	
7	0	0	0	0	490	527	523	501	32	33	
8	0	0	0	0	478	521	527	503	32	33	
9	0	0	0	0	510	514	517	506	32	32	
10	0	0	0	0	494	515	500	502	32	31	
11	0	0	0	0	499	510	506	508	31	31	
12	0	0	0	0	511	508	513	514	31	30	
13	0	0	0	0	521	482	512	525	30	31	
14	0	0	0	0	522	486	506	529	30	31	
15	0	0	0	0	502	496	499	524	31	32	
0	0	0	0	0	493	507	496	519	31	32	
1	0	0	0	0	486	508	497	513	31	31	
2	0	0	0	0	499	520	498	505	31	31	
3	0	0	0	0	504	526	505	501	31	31	
4	0	0	0	0	499	540	504	504	31	32	
5	0	0	0	0	512	531	516	508	31	32	
6	0	0	0	0	525	510	527	514	31	32	
7	0	0	0	0	516	516	532	511	31	31	
8	0	0	0	0	498	524	530	507	32	31	
9	0	0	0	0	494	504	530	504	31	31	
10	0	0	0	0	495	510	522	505	32	31	
11	0	0	0	0	503	509	515	504	32	29	
12	0	0	0	0	526	499	516	511	32	29	
13	0	0	0	0	509	496	512	518	31	31	
14	0	0	0	0	499	515	513	518	31	33	
15	0	0	0	0	492	517	527	513	31	35	
0	0	0	0	0	502	535	531	506	31	34	
1	0	0	0	0	510	530	535	502	31	32	
2	0	0	0	0	507	492	519	504	31	31	
3	0	0	0	0	507	499	511	513	31	31	
4	0	0	0	0	501	520	507	513	31	32	
5	0	0	0	0	497	517	511	513	31	31	
6	0	0	0	0	505	485	510	514	32	31	
7	0	0	0	0	506	449	511	513	32	30	
8	0	0	0	0	513	492	508	508	31	31	
9	0	0	0	0	500	532	511	505	31	32	
10	0	0	0	0	505	550	508	505	30	31	
11	0	0	0	0	507	542	511	507	30	31	
12	0	0	0	0	501	544	520	508	30	30	
13	0	0	0	0	489	515	527	511	31	30	
14	0	0	0	0	490	509	513	519	31	31	
15	0	0	0	0	504	513	521	516	31	32	
0	0	0	0	0	499	523	512	509	31	33	
1	0	0	0	0	506	523	511	507	31	32	
2	0	0	0	0	516	510	504	504	31	32	
3	0	0	0	0	508	511	496	505	31	31	
4	0	0	0	0	513	519	502	507	32	31	
5	0	0	0	0	509	524	500	504	32	31	
6	0	0	0	0	514	506	499	509	32	32	
7	0	0	0	0	525	500	499	511	32	32	
8	0	0	0	0	524	491	513	519	31	32	
9	0	0	0	0	519	472	507	520	31	31	
10	0	0	0	0	502	492	497	515	31	30	
11	0	0	0	0	499	531	504	508	32	29	
12	0	0	0	0	493	561	487	510	32	29	
13	0	0	0	0	503	545	487	509	31	30	
14	0	0	0	0	469	501	495	509	30	32	
15	0	0	0	0	476	492	500	506	30	33	
0	0	0	0	0	496	500	510	510	30	34	
1	0	0	0	0	508	507	494	508	31	34	
2	0	0	0	0	488	504	491	511	31	33	
3	0	0	0	0	492	506	490	514	33	32	
4	0	0	0	0	499	534	502	517	33	32	
5	0	0	0	0	509	526	503	514	32	32	
6	0	0	0	0	508	495	496	510	31	31	
7	0	0	0	0	519	497	496	507	30	31	
8	0	0	0	0	521	502	499	507	31	31	
9	0	0	0	0	514	529	508	509	31	31	
10	0	0	0	0	524	547	503	509	30	31	
11	0	0	0	0	507	525	492	507	31	31	
12	0	0	0	0	511	514	489	509	31	31	
13	0	0	0	0	503	508	491	511	31	32	
14	0	0	0	0	495	506	488	514	31	32	
15	0	0	0	0	499	510	490	511	31	32	
0	0	0	0	0	494	511	487	505	32	31	
1	0	0	0	0	494	508	502	503	34	31	
2	0	0	0	0	496	509	502	503	34	31	
3	0	0	0	0	505	515	489	513	32	31	
4	0	0	0	0	499	501	491	521	30	31	
5	0	0	0	0	494	511	488	522	32	31	
6	0	0	0	0	508	523	483	510	32	30	
7	0	0	0	0	515	520	491	505	29	32	
8	0	0	0	0	514	528	505	505	28	33	
9	0	0	0	0	506	521	504	507	28	34	
10	0	0	0	0	501	508	509	509	28	34	
11	0	0	0	0	498	501	492	508	30	32	
12	0	0	0	0	505	506	490	507	31	31	
13	0	0	0	0	514	497	496	509	32	32	
14	0	0	0	0	527	515	502	509	33	32	
15	0	0	0	0	531	547	503	513	32	32	
0	0	0	0	0	482	526	507	514	33	31	
1	0	0	0	0	464	513	499	517	35	30	
2	0	0	0	0	476	498	497	518	34	30	
3	0	0	0	0	486	494	502	514	32	30	
4	0	0	0	0	502	491	507	513	30	31	
5	0	0	0	0	509	486	512	511	29	31	
6	0	0	0	0	508	478	514	512	29	31	
7	0	0	0	0	508	496	511	507	30	30	
8	0	0	0	0	501	502	506	503	31	31	
9	0	0	0	0	493	497	500	503	31	31	
10	0	0	0	0	496	523	511	508	31	32	
11	0	0	0	0	495	540	504	509	31	32	
12	0	0	0	0	530	532	504	508	31	33	
13	0	0	0	0	474	514	504	510	31	33	
14	0	0	0	0	485	507	500	511	31	32	
15	0	0	0	0	485	532	519	512	32	31	
0	0	0	0	0	512	539	525	510	32	31	
1	0	0	0	0	540	524	519	507	32	31	
2	0	0	0	0	540	510	519	504	33	30	
3	0	0	0	0	531	504	523	505	33	31	
4	0	0	0	0	497	499	516	507	32	32	
5	0	0	0	0	475	505	513	515	32	31	
6	0	0	0	0	469	533	530	513	32	32	
7	0	0	0	0	481	531	522	515	32	32	
8	0	0	0	0	507	526	514	511	30	32	
9	0	0	0	0	520	514	514	508	29	32	
10	0	0	0	0	534	499	537	514	29	32	
11	0	0	0	0	543	504	537	518	29	31	
12	0	0	0	0	544	499	528	515	30	31	
13	0	0	0	0	528	493	521	513	31	31	
14	0	0	0	0	527	502	510	513	31	31	
15	0	0	0	0	505	526	514	513	32	32	
0	0	0	0	0	473	524	508	511	32	32	
1	0	0	0	0	480	563	515	510	32	31	
2	0	0	0	0	492	556	523	507	33	30	
3	0	0	0	0	493	546	513	504	32	31	
4	0	0	0	0	493	515	515	503	32	31	
5	0	0	0	0	489	461	512	507	31	31	
6	0	0	0	0	493	415	504	508	31	32	
7	0	0	0	0	498	448	502	504	30	32	
8	0	0	0	0	499	494	508	504	30	32	
9	0	0	0	0	499	540	515	509	31	31	
10	0	0	0	0	524	566	520	508	31	31	
11	0	0	0	0	527	537	508	515	32	31	
12	0	0	0	0	521	520	505	517	32	32	
13	0	0	0	0	516	519	512	521	33	33	
14	0	0	0	0	488	490	503	512	33	33	
15	0	0	0	0	468	503	505	504	33	33	
0	0	0	0	0	476	524	520	499	31	32	
1	0	0	0	0	488	529	519	503	29	31	
2	0	0	0	0	484	526	520	513	29	30	
3	0	0	0	0	480	495	519	509	30	30	
4	0	0	0	0	501	472	506	515	30	31	
5	0	0	0	0	525	465	499	522	31	31	
6	0	0	0	0	529	510	493	518	30	31	
7	0	0	0	0	543	554	495	509	31	31	
8	0	0	0	0	533	560	503	505	31	31	
9	0	0	0	0	498	563	507	504	31	31	
10	0	0	0	0	482	548	495	507	31	31	
11	0	0	0	0	481	527	500	514	31	30	
12	0	0	0	0	492	487	507	518	31	30	
13	0	0	0	0	504	471	512	519	32	31	
14	0	0	0	0	495	472	519	511	32	33	
15	0	0	0	0	490	493	514	512	32	33	
0	0	0	0	0	491	522	509	513	32	33	
1	0	0	0	0	513	525	504	503	32	33	
2	0	0	0	0	531	503	499	496	32	32	
3	0	0	0	0	515	481	513	497	31	32	
4	0	0	0	0	497	489	518	500	31	31	
5	0	0	0	0	480	509	511	502	31	31	
6	0	0	0	0	482	535	524	509	31	31	
7	0	0	0	0	497	532	506	512	31	31	
8	0	0	0	0	512	531	507	511	31	32	
9	0	0	0	0	525	529	514	509	31	32	
10	0	0	0	0	535	520	504	511	32	32	
11	0	0	0	0	514	498	513	515	32	31	
12	0	0	0	0	488	489	516	519	32	30	
13	0	0	0	0	474	501	510	518	32	31	
14	0	0	0	0	482	555	518	510	31	31	
15	0	0	0	0	497	585	510	512	31	31	
0	0	0	0	0	499	569	520	515	30	31	
1	0	0	0	0	504	511	512	516	30	32	
2	0	0	0	0	511	508	516	514	30	32	
3	0	0	0	0	500	487	517	508	30	31	
4	0	0	0	0	484	456	522	511	30	30	
5	0	0	0	0	474	455	507	510	31	30	
6	0	0	0	0	454	467	504	508	31	31	
7	0	0	0	0	463	472	512	503	31	33	
8	0	0	0	0	483	478	519	500	32	33	
9	0	0	0	0	504	487	518	498	32	33	
10	0	0	0	0	547	516	524	504	32	34	
11	0	0	0	0	558	548	516	512	32	34	
12	0	0	0	0	540	556	519	518	31	31	
13	0	0	0	0	525	546	527	519	31	30	
14	0	0	0	0	509	508	525	512	31	29	
15	0	0	0	0	510	507	502	508	31	31	
0	0	0	0	0	489	548	510	508	31	32	
1	0	0	0	0	486	568	510	510	31	32	
2	0	0	0	0	491	575	505	510	31	31	
3	0	0	0	0	472	561	495	513	31	31	
4	0	0	0	0	468	520	518	521	31	30	
5	0	0	0	0	478	478	511	519	31	31	
6	0	0	0	0	484	465	512	513	31	32	
7	0	0	0	0	478	464	513	508	31	32	
8	0	0	0	0	501	463	505	508	31	33	
9	0	0	0	0	508	462	498	509	31	33	
10	0	0	0	0	515	451	506	509	31	34	
11	0	0	0	0	568	455	500	509	31	33	
12	0	0	0	0	574	447	521	506	31	30	
13	0	0	0	0	531	488	512	505	31	29	
14	0	0	0	0	471	553	510	509	31	30	
15	0	0	0	0	408	598	520	508	31	30	
0	0	0	0	0	421	601	507	507	31	31	
1	0	0	0	0	476	547	503	503	31	31	
2	0	0	0	0	513	535	504	504	31	30	
3	0	0	0	0	528	526	501	507	31	30	
4	0	0	0	0	540	494	500	507	31	31	
5	0	0	0	0	542	459	490	507	31	33	
6	0	0	0	0	527	451	487	519	31	32	
7	0	0	0	0	501	493	492	520	31	32	
8	0	0	0	0	466	522	502	523	31	31	
9	0	0	0	0	447	566	511	509	31	31	
10	0	0	0	0	483	590	517	508	31	31	
11	0	0	0	0	531	583	527	511	31	32	
12	0	0	0	0	589	550	504	513	31	33	
13	0	0	0	0	603	531	513	515	31	32	
14	0	0	0	0	569	483	529	514	31	32	
15	0	0	0	0	500	434	545	511	31	32	
0	0	0	0	0	457	396	550	512	31	32	
1	0	0	0	0	447	399	546	507	31	31	
2	0	0	0	0	463	446	529	506	31	31	
3	0	0	0	0	468	500	504	510	31	31	
4	0	0	0	0	486	551	492	508	31	31	
5	0	0	0	0	511	569	505	502	31	31	
6	0	0	0	0	529	567	553	500	31	30	
7	0	0	0	0	547	568	585	504	31	30	
8	0	0	0	0	551	553	584	517	31	33	
9	0	0	0	0	539	534	562	526	31	34	
10	0	0	0	0	530	526	548	525	31	33	
11	0	0	0	0	520	540	533	513	31	33	
12	0	0	0	0	503	524	520	501	31	31	
13	0	0	0	0	486	492	506	497	31	32	
14	0	0	0	0	487	504	494	496	31	35	
15	0	0	0	0	500	518	474	499	31	35	
0	0	0	0	0	500	515	456	509	31	31	
1	0	0	0	0	489	499	438	515	31	28	
2	0	0	0	0	470	492	433	520	31	28	
3	0	0	0	0	480	551	380	516	31	28	
4	0	0	0	0	499	619	380	508	31	29	
5	0	0	0	0	497	584	387	504	31	29	
6	0	0	0	0	471	511	405	508	31	30	
7	0	0	0	0	495	467	415	517	31	31	
8	0	0	0	0	519	419	429	522	31	32	
9	0	0	0	0	548	368	447	515	31	32	
10	0	0	0	0	556	403	451	512	31	32	
11	0	0	0	0	545	450	483	512	31	33	
12	0	0	0	0	558	482	500	508	31	32	
13	0	0	0	0	532	526	507	510	31	32	
14	0	0	0	0	526	551	514	506	31	31	
15	0	0	0	0	534	556	512	509	31	31	
0	0	0	0	0	515	547	513	508	31	31	
1	0	0	0	0	479	542	521	505	31	32	
2	0	0	0	0	478	570	537	504	31	32	
3	0	0	0	0	494	557	537	506	31	32	
4	0	0	0	0	485	495	528	504	31	33	
5	0	0	0	0	481	459	531	506	31	35	
6	0	0	0	0	502	475	539	505	31	34	
7	0	0	0	0	520	507	543	511	31	32	
8	0	0	0	0	552	512	548	514	31	29	
9	0	0	0	0	555	519	553	513	31	26	
10	0	0	0	0	529	535	560	516	31	27	
11	0	0	0	0	489	552	557	513	31	29	
12	0	0	0	0	460	541	557	513	31	32	
13	0	0	0	0	473	521	553	517	31	32	
14	0	0	0	0	489	514	556	519	31	32	
15	0	0	0	0	493	526	562	515	31	32	
0	0	0	0	0	515	523	555	511	31	32	
1	0	0	0	0	543	530	545	505	31	32	
2	0	0	0	0	541	531	540	504	31	32	
3	0	0	0	0	523	529	534	507	31	32	
4	0	0	0	0	515	493	535	510	31	32	
5	0	0	0	0	523	463	535	509	31	31	
6	0	0	0	0	528	463	535	508	31	31	
7	0	0	0	0	523	488	533	510	31	31	
8	0	0	0	0	506	496	526	508	31	31	
9	0	0	0	0	491	515	522	507	31	31	
10	0	0	0	0	487	518	527	505	31	32	
11	0	0	0	0	509	498	519	507	31	33	
12	0	0	0	0	518	490	515	506	31	34	
13	0	0	0	0	501	521	515	508	31	34	
14	0	0	0	0	474	555	520	516	31	32	
15	0	0	0	0	438	565	521	514	31	31	
0	0	0	0	0	422	557	528	513	31	29	
1	0	0	0	0	463	508	532	508	31	29	
2	0	0	0	0	536	457	509	505	31	29	
3	0	0	0	0	585	469	499	515	31	29	
4	0	0	0	0	625	515	507	518	31	30	
5	0	0	0	0	583	547	500	517	31	31	
6	0	0	0	0	513	534	501	512	31	32	
7	0	0	0	0	487	523	494	505	31	32	
8	0	0	0	0	506	511	481	507	31	33	
9	0	0	0	0	514	487	483	507	31	32	
10	0	0	0	0	507	478	480	508	31	33	
11	0	0	0	0	478	497	476	510	31	32	
12	0	0	0	0	444	530	478	508	31	31	
13	0	0	0	0	464	538	487	510	31	31	
14	0	0	0	0	469	529	504	508	31	31	
15	0	0	0	0	463	508	503	506	31	31	
0	0	0	0	0	481	518	492	509	31	32	
1	0	0	0	0	525	538	499	512	31	32	
2	0	0	0	0	547	540	498	514	31	32	
3	0	0	0	0	551	513	501	514	31	32	
4	0	0	0	0	532	488	501	515	31	31	
5	0	0	0	0	508	472	501	511	31	31	
6	0	0	0	0	493	459	496	512	31	31	
7	0	0	0	0	479	480	502	511	31	32	
8	0	0	0	0	492	501	502	514	31	33	
9	0	0	0	0	513	506	497	513	31	33	
10	0	0	0	0	517	528	514	513	31	33	
11	0	0	0	0	481	532	496	508	31	33	
12	0	0	0	0	468	527	497	508	31	32	
13	0	0	0	0	479	523	496	511	31	31	
14	0	0	0	0	505	502	499	514	31	31	
15	0	0	0	0	526	500	503	513	31	31	
0	0	0	0	0	516	521	513	510	31	30	
1	0	0	0	0	479	563	507	507	31	32	
2	0	0	0	0	456	559	505	508	31	33	
3	0	0	0	0	463	524	514	509	31	32	
4	0	0	0	0	480	499	516	507	31	29	
5	0	0	0	0	487	481	511	507	31	29	
6	0	0	0	0	475	485	511	510	31	29	
7	0	0	0	0	496	515	510	512	31	29	
8	0	0	0	0	527	513	515	512	31	30	
9	0	0	0	0	525	509	522	513	31	31	
10	0	0	0	0	512	511	513	512	31	32	
11	0	0	0	0	510	512	526	510	31	33	
12	0	0	0	0	498	512	527	510	31	32	
13	0	0	0	0	487	516	528	510	31	33	
14	0	0	0	0	476	522	515	507	31	34	
15	0	0	0	0	482	530	511	507	31	33	
0	0	0	0	0	487	524	515	503	31	32	
1	0	0	0	0	516	515	540	507	31	29	
2	0	0	0	0	550	506	536	505	31	29	
3	0	0	0	0	526	498	533	507	31	31	
4	0	0	0	0	496	501	513	507	31	31	
5	0	0	0	0	488	507	508	511	31	32	
6	0	0	0	0	468	515	498	519	31	32	
7	0	0	0	0	460	509	506	519	31	33	
8	0	0	0	0	497	508	493	519	31	33	
9	0	0	0	0	519	513	511	515	31	32	
10	0	0	0	0	520	512	551	511	31	32	
11	0	0	0	0	501	501	560	512	31	31	
12	0	0	0	0	506	507	571	505	31	31	
13	0	0	0	0	531	507	566	504	31	32	
14	0	0	0	0	523	514	546	508	31	32	
15	0	0	0	0	513	526	506	504	31	31	
0	0	0	0	0	476	525	470	506	31	32	
1	0	0	0	0	419	515	449	512	31	32	
2	0	0	0	0	451	513	465	514	31	31	
3	0	0	0	0	522	509	485	511	31	30	
4	0	0	0	0	568	508	469	511	31	30	
5	0	0	0	0	561	508	483	510	31	29	
6	0	0	0	0	516	513	497	501	31	30	
7	0	0	0	0	507	537	501	503	31	32	
8	0	0	0	0	500	537	490	513	31	33	
9	0	0	0	0	493	523	496	519	31	33	
10	0	0	0	0	514	499	502	517	31	32	
11	0	0	0	0	532	492	507	516	31	31	
12	0	0	0	0	506	499	498	507	31	31	
13	0	0	0	0	480	509	502	505	31	30	
14	0	0	0	0	466	512	502	510	31	30	
15	0	0	0	0	427	517	508	512	31	29	
0	0	0	0	0	422	518	511	511	31	30	
1	0	0	0	0	463	498	509	509	31	31	
2	0	0	0	0	516	486	507	507	31	32	
3	0	0	0	0	536	505	497	507	31	32	
4	0	0	0	0	530	509	499	505	31	32	
5	0	0	0	0	521	513	510	508	31	32	
6	0	0	0	0	527	519	510	508	31	31	
7	0	0	0	0	503	534	500	512	31	31	
8	0	0	0	0	495	529	501	518	31	32	
9	0	0	0	0	497	512	509	515	31	33	
10	0	0	0	0	503	503	511	513	31	34	
11	0	0	0	0	521	501	507	515	31	33	
12	0	0	0	0	531	499	510	514	31	32	
13	0	0	0	0	513	516	518	509	31	32	
14	0	0	0	0	501	530	522	505	31	32	
15	0	0	0	0	501	517	518	512	31	31	
0	0	0	0	0	499	514	516	516	31	30	
1	0	0	0	0	499	503	513	508	31	30	
2	0	0	0	0	506	495	527	511	31	30	
3	0	0	0	0	505	494	530	507	31	31	
4	0	0	0	0	508	506	531	510	31	31	
5	0	0	0	0	504	518	535	506	31	31	
6	0	0	0	0	489	515	529	508	31	31	
7	0	0	0	0	483	526	521	508	31	32	
8	0	0	0	0	499	530	524	508	31	32	
9	0	0	0	0	499	528	515	507	31	32	
10	0	0	0	0	494	525	517	508	31	32	
11	0	0	0	0	496	505	515	511	31	32	
12	0	0	0	0	491	505	515	509	31	31	
13	0	0	0	0	479	510	516	505	31	31	
14	0	0	0	0	489	522	516	509	31	31	
15	0	0	0	0	496	546	525	511	31	31	
0	0	0	0	0	508	556	520	510	31	31	
1	0	0	0	0	518	555	524	514	31	32	
2	0	0	0	0	532	499	519	517	31	33	
3	0	0	0	0	537	451	521	522	31	33	
4	0	0	0	0	530	439	520	518	31	33	
5	0	0	0	0	513	464	511	513	31	32	
6	0	0	0	0	514	486	513	509	31	32	
7	0	0	0	0	504	496	526	506	31	31	
8	0	0	0	0	486	499	532	505	31	31	
9	0	0	0	0	484	515	521	508	31	31	
10	0	0	0	0	501	535	510	506	31	31	
11	0	0	0	0	501	537	510	507	31	31	
12	0	0	0	0	494	536	507	510	31	31	
13	0	0	0	0	504	534	502	513	31	32	
14	0	0	0	0	511	522	508	513	31	32	
15	0	0	0	0	507	521	502	509	31	31	
0	0	0	0	0	502	551	496	511	31	31	
1	0	0	0	0	503	550	487	507	31	31	
2	0	0	0	0	508	510	494	506	31	31	
3	0	0	0	0	495	485	503	512	31	31	
4	0	0	0	0	489	480	500	515	31	31	
5	0	0	0	0	492	497	513	513	31	31	
6	0	0	0	0	500	503	506	509	31	32	
7	0	0	0	0	493	508	503	506	31	31	
8	0	0	0	0	468	514	499	507	31	31	
9	0	0	0	0	494	519	499	508	31	31	
10	0	0	0	0	521	524	498	512	31	31	
11	0	0	0	0	531	520	499	517	31	31	
12	0	0	0	0	515	513	499	513	31	32	
13	0	0	0	0	496	509	505	512	31	32	
14	0	0	0	0	497	501	500	509	31	32	
15	0	0	0	0	503	499	500	509	31	32	
0	0	0	0	0	514	521	499	503	31	31	
1	0	0	0	0	521	531	495	504	31	31	
2	0	0	0	0	514	523	491	506	31	31	
3	0	0	0	0	509	507	501	509	31	32	
4	0	0	0	0	494	497	501	515	31	32	
5	0	0	0	0	490	496	505	518	31	33	
6	0	0	0	0	492	499	508	518	31	32	
7	0	0	0	0	472	514	518	511	31	31	
8	0	0	0	0	470	524	524	506	31	31	
9	0	0	0	0	506	515	509	505	31	31	
10	0	0	0	0	542	503	507	507	31	32	
11	0	0	0	0	542	493	514	506	31	32	
12	0	0	0	0	530	494	508	509	31	32	
13	0	0	0	0	519	511	500	510	31	32	
14	0	0	0	0	496	516	507	512	31	31	
15	0	0	0	0	491	521	510	513	31	31	
0	0	0	0	0	496	519	515	512	31	31	
1	0	0	0	0	504	520	518	516	31	31	
2	0	0	0	0	499	522	502	515	31	31	
3	0	0	0	0	499	521	503	508	31	31	
4	0	0	0	0	496	525	508	504	31	31	
5	0	0	0	0	498	520	511	504	31	32	
6	0	0	0	0	500	515	517	512	31	32	
7	0	0	0	0	502	508	519	516	31	32	
8	0	0	0	0	492	499	513	516	31	32	
9	0	0	0	0	492	487	507	514	31	32	
10	0	0	0	0	503	501	503	513	31	32	
11	0	0	0	0	512	512	511	511	31	32	
12	0	0	0	0	507	507	510	503	31	32	
13	0	0	0	0	491	508	508	507	31	31	
14	0	0	0	0	487	513	514	507	31	31	
15	0	0	0	0	497	527	515	507	31	31	
0	0	0	0	0	508	541	524	509	31	31	
1	0	0	0	0	511	546	517	511	31	31	
2	0	0	0	0	507	529	510	509	31	31	
3	0	0	0	0	504	511	504	506	31	31	
4	0	0	0	0	504	505	518	508	31	31	
5	0	0	0	0	504	503	523	510	31	31	
6	0	0	0	0	495	511	518	512	31	32	
7	0	0	0	0	499	504	515	514	31	32	
8	0	0	0	0	486	503	516	513	31	32	
9	0	0	0	0	488	513	507	514	31	31	
10	0	0	0	0	502	519	500	513	31	31	
11	0	0	0	0	511	519	503	513	31	32	
12	0	0	0	0	519	507	508	511	31	32	
13	0	0	0	0	515	485	513	510	31	31	
14	0	0	0	0	505	467	520	507	31	31	
15	0	0	0	0	499	481	523	508	31	31	
0	0	0	0	0	508	509	520	506	31	31	
1	0	0	0	0	513	528	520	511	31	31	
2	0	0	0	0	510	525	517	512	31	31	
3	0	0	0	0	500	522	512	505	31	31	
4	0	0	0	0	499	521	510	505	31	31	
5	0	0	0	0	515	540	514	511	31	32	
6	0	0	0	0	527	546	513	512	31	32	
7	0	0	0	0	511	537	519	515	31	32	
8	0	0	0	0	509	520	518	513	31	32	
9	0	0	0	0	508	507	514	510	31	32	
10	0	0	0	0	501	489	511	508	31	32	
11	0	0	0	0	499	475	508	508	31	31	
12	0	0	0	0	508	472	508	508	31	32	
13	0	0	0	0	501	490	516	509	31	32	
14	0	0	0	0	503	510	512	511	31	31	
15	0	0	0	0	489	520	509	508	31	31	
0	0	0	0	0	491	521	517	509	31	31	
1	0	0	0	0	502	522	505	510	31	31	
2	0	0	0	0	501	521	502	510	31	31	
3	0	0	0	0	507	525	500	512	31	31	
4	0	0	0	0	510	519	486	511	31	32	
5	0	0	0	0	507	519	498	510	31	32	
6	0	0	0	0	508	516	498	509	31	32	
7	0	0	0	0	504	529	509	508	31	31	
8	0	0	0	0	498	518	519	510	31	31	
9	0	0	0	0	495	500	512	512	31	31	
10	0	0	0	0	499	498	519	511	31	31	
11	0	0	0	0	502	494	520	511	31	31	
12	0	0	0	0	510	497	508	512	31	32	
13	0	0	0	0	516	508	508	510	31	32	
14	0	0	0	0	514	511	504	511	31	32	
15	0	0	0	0	507	513	513	512	31	31	
0	0	0	0	0	504	512	515	510	31	31	
1	0	0	0	0	510	512	524	508	31	31	
2	0	0	0	0	510	507	516	503	31	31	
3	0	0	0	0	511	511	507	511	31	32	
4	0	0	0	0	504	517	510	513	31	32	
5	0	0	0	0	499	517	503	513	31	32	
6	0	0	0	0	494	519	499	515	31	32	
7	0	0	0	0	498	523	509	511	31	32	
8	0	0	0	0	499	524	513	508	31	32	
9	0	0	0	0	493	517	523	507	31	32	
10	0	0	0	0	496	512	515	510	31	32	
11	0	0	0	0	498	504	513	514	31	32	
12	0	0	0	0	499	497	504	511	31	31	
13	0	0	0	0	494	501	483	511	31	31	
14	0	0	0	0	499	509	496	508	31	31	
15	0	0	0	0	507	518	496	508	31	31	
0	0	0	0	0	505	521	503	508	31	31	
1	0	0	0	0	507	517	511	508	31	31	
2	0	0	0	0	500	519	516	509	31	31	
3	0	0	0	0	497	524	518	508	31	31	
4	0	0	0	0	500	521	513	511	31	32	
5	0	0	0	0	503	522	499	512	31	32	
6	0	0	0	0	505	519	498	512	31	32	
7	0	0	0	0	509	509	498	508	31	32	
8	0	0	0	0	508	500	511	505	31	31	
9	0	0	0	0	506	494	520	511	31	31	
10	0	0	0	0	506	499	524	513	31	31	
11	0	0	0	0	504	504	520	512	31	31	
12	0	0	0	0	499	507	512	510	31	31	
13	0	0	0	0	493	511	499	512	31	31	
14	0	0	0	0	492	514	509	513	31	31	
15	0	0	0	0	491	516	508	511	31	31	
0	0	0	0	0	492	516	496	508	31	31	
1	0	0	0	0	500	514	491	509	31	31	
2	0	0	0	0	498	509	496	510	31	31	
3	0	0	0	0	500	505	501	508	31	31	
4	0	0	0	0	505	510	512	509	31	31	
5	0	0	0	0	472	510	504	512	31	32	
6	0	0	0	0	499	513	508	510	31	31	
7	0	0	0	0	529	518	498	513	31	31	
8	0	0	0	0	508	519	488	510	31	31	
9	0	0	0	0	496	515	481	509	31	31	
10	0	0	0	0	463	515	476	509	31	31	
11	0	0	0	0	425	515	481	508	31	31	
12	0	0	0	0	426	515	493	510	31	31	
13	0	0	0	0	444	516	496	512	31	31	
14	0	0	0	0	466	516	490	511	31	32	
15	0	0	0	0	500	515	497	512	31	32	
0	0	0	0	0	513	511	508	510	31	31	
1	0	0	0	0	528	511	533	511	31	31	
2	0	0	0	0	530	513	545	510	31	31	
3	0	0	0	0	515	516	543	512	31	31	
4	0	0	0	0	514	514	533	511	31	31	
5	0	0	0	0	514	513	530	510	31	32	
6	0	0	0	0	516	510	519	508	31	31	
7	0	0	0	0	520	509	511	504	31	32	
8	0	0	0	0	520	508	494	505	31	31	
9	0	0	0	0	524	512	489	509	31	32	
10	0	0	0	0	524	518	475	510	31	32	
11	0	0	0	0	519	518	466	512	31	31	
12	0	0	0	0	512	515	476	508	31	31	
13	0	0	0	0	497	514	484	510	31	31	
14	0	0	0	0	511	513	483	511	31	31	
15	0	0	0	0	511	508	517	513	31	31	
0	0	0	0	0	512	507	549	510	31	31	
1	0	0	0	0	498	507	522	508	31	31	
2	0	0	0	0	508	505	519	509	31	31	
3	0	0	0	0	520	508	506	512	31	31	
4	0	0	0	0	528	508	490	511	31	31	
5	0	0	0	0	532	513	468	510	31	31	
6	0	0	0	0	519	511	460	513	31	31	
7	0	0	0	0	517	510	460	514	31	31	
8	0	0	0	0	512	511	470	517	31	31	
9	0	0	0	0	507	514	493	510	31	31	
10	0	0	0	0	509	518	497	503	31	32	
11	0	0	0	0	512	515	505	505	31	31	
12	0	0	0	0	517	518	528	509	31	32	
13	0	0	0	0	505	523	544	508	31	32	
14	0	0	0	0	502	519	550	510	31	32	
15	0	0	0	0	509	508	542	511	31	31	
0	0	0	0	0	508	503	552	510	31	31	
1	0	0	0	0	513	499	544	512	31	31	
2	0	0	0	0	515	502	553	510	31	31	
3	0	0	0	0	512	508	535	510	31	31	
4	0	0	0	0	512	509	513	511	31	32	
5	0	0	0	0	496	514	537	510	31	31	
6	0	0	0	0	500	517	556	510	31	31	
7	0	0	0	0	500	518	539	509	31	31	
8	0	0	0	0	497	515	530	507	31	31	
9	0	0	0	0	498	513	532	511	31	31	
10	0	0	0	0	496	507	537	510	31	31	
11	0	0	0	0	503	511	542	510	31	31	
12	0	0	0	0	502	518	539	508	31	31	
13	0	0	0	0	499	517	545	508	31	31	
14	0	0	0	0	496	518	531	510	31	31	
15	0	0	0	0	495	516	526	511	31	31	
0	0	0	0	0	495	514	525	509	31	31	
1	0	0	0	0	499	515	521	510	31	31	
2	0	0	0	0	502	512	510	511	31	31	
3	0	0	0	0	500	508	507	511	31	32	
4	0	0	0	0	501	507	509	512	31	32	
5	0	0	0	0	505	508	518	510	31	31	
6	0	0	0	0	504	512	522	508	31	31	
7	0	0	0	0	502	513	518	509	31	31	
8	0	0	0	0	504	513	511	508	31	31	
9	0	0	0	0	508	513	507	510	31	31	
10	0	0	0	0	504	511	507	510	31	31	
11	0	0	0	0	508	511	521	510	31	31	
12	0	0	0	0	510	510	521	511	31	32	
13	0	0	0	0	519	506	521	510	31	32	
14	0	0	0	0	510	509	519	511	31	32	
15	0	0	0	0	503	512	507	511	31	32	
0	0	0	0	0	502	512	511	512	31	32	
1	0	0	0	0	507	511	496	511	31	32	
2	0	0	0	0	510	508	496	510	31	32	
3	0	0	0	0	512	514	499	507	31	31	
4	0	0	0	0	511	527	504	509	31	31	
5	0	0	0	0	511	526	507	509	31	31	
6	0	0	0	0	506	514	503	509	31	31	
7	0	0	0	0	497	507	503	509	31	31	
8	0	0	0	0	496	508	496	509	31	31	
9	0	0	0	0	498	497	499	511	31	32	
10	0	0	0	0	496	504	500	512	31	32	
11	0	0	0	0	493	513	504	512	31	31	
12	0	0	0	0	503	516	517	510	31	32	
13	0	0	0	0	507	513	525	513	31	31	
14	0	0	0	0	505	507	524	509	31	31	
15	0	0	0	0	511	505	520	509	31	31	
0	0	0	0	0	514	508	507	508	31	31	
1	0	0	0	0	514	505	511	509	31	31	
2	0	0	0	0	510	511	503	511	31	31	
3	0	0	0	0	506	513	497	510	31	32	
4	0	0	0	0	500	518	497	511	31	32	
5	0	0	0	0	494	521	500	508	31	32	
6	0	0	0	0	495	515	492	507	31	32	
7	0	0	0	0	493	510	492	510	31	31	
8	0	0	0	0	496	514	502	512	31	32	
9	0	0	0	0	500	514	506	512	31	31	
10	0	0	0	0	504	511	500	509	31	31	
11	0	0	0	0	505	514	496	508	31	31	
12	0	0	0	0	505	518	500	510	31	31	
13	0	0	0	0	499	519	506	512	31	32	
14	0	0	0	0	499	515	514	508	31	32	
15	0	0	0	0	497	507	513	508	31	31	
0	0	0	0	0	490	508	502	508	31	31	
1	0	0	0	0	496	518	493	508	31	31	
2	0	0	0	0	504	524	474	511	31	31	
3	0	0	0	0	510	524	468	514	31	31	
4	0	0	0	0	517	519	484	511	31	32	
5	0	0	0	0	517	509	492	509	31	32	
6	0	0	0	0	514	498	492	510	31	31	
7	0	0	0	0	515	488	513	508	31	31	
8	0	0	0	0	508	498	519	507	31	31	
9	0	0	0	0	512	511	533	510	31	31	
10	0	0	0	0	517	510	521	512	31	31	
11	0	0	0	0	508	512	524	515	31	32	
12	0	0	0	0	505	514	510	515	31	32	
13	0	0	0	0	499	521	508	508	31	32	
14	0	0	0	0	497	518	496	506	31	31	
15	0	0	0	0	503	518	496	507	31	31	
0	0	0	0	0	502	519	508	508	31	31	
1	0	0	0	0	510	520	517	511	31	32	
2	0	0	0	0	521	527	518	513	31	32	
3	0	0	0	0	526	520	519	511	31	32	
4	0	0	0	0	521	516	521	506	31	32	
5	0	0	0	0	507	509	530	508	31	32	
6	0	0	0	0	504	505	525	512	31	32	
7	0	0	0	0	491	506	524	510	31	31	
8	0	0	0	0	486	505	516	511	31	31	
9	0	0	0	0	489	505	527	509	31	31	
10	0	0	0	0	497	505	520	510	31	31	
11	0	0	0	0	507	508	515	510	31	31	
12	0	0	0	0	515	505	513	509	31	32	
13	0	0	0	0	509	506	504	508	31	31	
14	0	0	0	0	504	514	509	511	31	31	
15	0	0	0	0	491	513	526	510	31	31	
0	0	0	0	0	489	514	516	512	31	31	
1	0	0	0	0	493	517	508	511	31	31	
2	0	0	0	0	486	519	499	505	31	31	
3	0	0	0	0	487	515	492	509	31	31	
4	0	0	0	0	489	512	490	511	31	32	
5	0	0	0	0	494	509	491	512	31	32	
6	0	0	0	0	497	511	494	510	31	32	
7	0	0	0	0	498	519	487	512	31	32	
8	0	0	0	0	503	524	479	509	31	32	
9	0	0	0	0	500	513	491	512	31	31	
10	0	0	0	0	499	502	502	510	31	31	
11	0	0	0	0	504	497	512	512	31	31	
12	0	0	0	0	504	501	511	511	31	31	
13	0	0	0	0	506	516	503	512	31	31	
14	0	0	0	0	504	518	513	511	31	31	
15	0	0	0	0	503	519	519	510	31	32	
0	0	0	0	0	503	518	525	504	31	31	
1	0	0	0	0	500	517	520	507	31	31	
2	0	0	0	0	503	519	513	511	31	31	
3	0	0	0	0	503	515	513	512	31	31	
4	0	0	0	0	503	514	505	510	31	31	
5	0	0	0	0	505	512	505	512	31	31	
6	0	0	0	0	506	511	520	510	31	31	
7	0	0	0	0	502	511	505	509	31	31	
8	0	0	0	0	509	511	496	508	31	31	
9	0	0	0	0	510	513	508	509	31	32	
10	0	0	0	0	507	514	510	511	31	32	
11	0	0	0	0	504	524	503	508	31	32	
12	0	0	0	0	502	513	494	512	31	32	
13	0	0	0	0	503	497	501	513	31	32	
14	0	0	0	0	507	513	504	509	31	32	
15	0	0	0	0	505	520	505	509	31	31	
0	0	0	0	0	502	508	509	508	31	31	
1	0	0	0	0	499	504	522	509	31	31	
2	0	0	0	0	500	504	520	511	31	31	
3	0	0	0	0	503	510	516	508	31	31	
4	0	0	0	0	502	514	503	511	31	31	
5	0	0	0	0	499	518	497	514	31	31	
6	0	0	0	0	498	516	520	510	31	31	
7	0	0	0	0	501	517	529	508	31	31	
8	0	0	0	0	499	515	513	507	31	31	
9	0	0	0	0	494	511	499	511	31	32	
10	0	0	0	0	492	508	505	511	31	32	
11	0	0	0	0	497	509	516	509	31	32	
12	0	0	0	0	501	513	522	510	31	31	
13	0	0	0	0	506	514	508	507	31	31	
14	0	0	0	0	504	513	502	508	31	31	
15	0	0	0	0	508	509	515	509	31	31	
0	0	0	0	0	508	504	513	509	31	31	
1	0	0	0	0	504	502	509	508	31	31	
2	0	0	0	0	503	508	509	510	31	31	
3	0	0	0	0	505	510	508	510	31	31	
4	0	0	0	0	507	514	508	514	31	32	
5	0	0	0	0	508	518	512	512	31	32	
6	0	0	0	0	512	526	511	511	31	31	
7	0	0	0	0	518	530	514	509	31	32	
8	0	0	0	0	515	533	528	512	31	32	
9	0	0	0	0	514	529	521	512	31	32	
10	0	0	0	0	513	523	532	512	31	32	
11	0	0	0	0	512	509	532	509	31	31	
12	0	0	0	0	504	501	523	511	31	31	
13	0	0	0	0	499	494	510	508	31	31	
14	0	0	0	0	497	500	508	508	31	31	
15	0	0	0	0	501	503	512	509	31	31	
0	0	0	0	0	505	507	511	508	31	31	
1	0	0	0	0	505	512	498	510	31	31	
2	0	0	0	0	507	510	498	510	31	31	
3	0	0	0	0	508	507	507	509	31	31	
4	0	0	0	0	504	507	503	510	31	31	
5	0	0	0	0	502	509	512	513	31	31	
6	0	0	0	0	504	511	507	511	31	32	
7	0	0	0	0	506	512	507	510	31	31	
8	0	0	0	0	503	515	505	507	31	31	
9	0	0	0	0	502	519	513	511	31	31	
10	0	0	0	0	501	530	514	509	31	31	
11	0	0	0	0	503	531	512	513	31	31	
12	0	0	0	0	507	517	503	512	31	31	
13	0	0	0	0	509	498	498	512	31	31	
14	0	0	0	0	511	486	499	514	31	32	
15	0	0	0	0	512	489	500	510	31	31	
0	0	0	0	0	510	504	517	511	31	32	
1	0	0	0	0	515	516	534	508	31	31	
2	0	0	0	0	515	528	543	507	31	32	
3	0	0	0	0	503	529	518	508	31	32	
4	0	0	0	0	498	509	518	508	31	32	
5	0	0	0	0	495	503	524	510	31	32	
6	0	0	0	0	496	509	524	511	31	32	
7	0	0	0	0	499	521	503	508	31	32	
8	0	0	0	0	500	527	491	511	31	31	
9	0	0	0	0	506	527	486	512	31	31	
10	0	0	0	0	504	528	487	511	31	31	
11	0	0	0	0	501	527	487	510	31	31	
12	0	0	0	0	504	521	489	507	31	31	
13	0	0	0	0	507	518	491	511	31	32	
14	0	0	0	0	503	516	495	512	31	31	
15	0	0	0	0	502	511	490	513	31	32	
0	0	0	0	0	503	498	495	510	31	31	
1	0	0	0	0	502	497	488	511	31	32	
2	0	0	0	0	504	499	500	509	31	31	
3	0	0	0	0	505	496	500	505	31	31	
4	0	0	0	0	507	491	511	510	31	31	
5	0	0	0	0	508	497	518	508	31	31	
6	0	0	0	0	509	505	514	510	31	31	
7	0	0	0	0	510	513	514	513	31	31	
8	0	0	0	0	512	525	512	511	31	31	
9	0	0	0	0	512	527	510	510	31	32	
10	0	0	0	0	510	519	506	509	31	32	
11	0	0	0	0	508	513	515	510	31	31	
12	0	0	0	0	501	517	511	511	31	31	
13	0	0	0	0	502	518	525	512	31	32	
14	0	0	0	0	499	515	507	511	31	31	
15	0	0	0	0	498	514	513	512	31	31	
0	0	0	0	0	495	512	508	512	31	31	
1	0	0	0	0	498	513	502	511	31	31	
2	0	0	0	0	502	516	512	512	31	31	
3	0	0	0	0	501	513	515	509	31	31	
4	0	0	0	0	502	512	524	508	31	31	
5	0	0	0	0	502	509	524	509	31	32	
6	0	0	0	0	503	506	529	510	31	31	
7	0	0	0	0	500	506	521	508	31	32	
8	0	0	0	0	501	507	524	508	31	32	
9	0	0	0	0	509	507	522	510	31	32	
10	0	0	0	0	509	505	508	509	31	31	
11	0	0	0	0	507	508	504	510	31	32	
12	0	0	0	0	509	513	501	510	31	31	
13	0	0	0	0	505	518	502	510	31	31	
14	0	0	0	0	505	520	508	511	31	31	
15	0	0	0	0	505	522	499	508	31	31	
0	0	0	0	0	504	518	505	511	31	31	
1	0	0	0	0	503	517	503	510	31	31	
2	0	0	0	0	507	510	496	507	31	31	
3	0	0	0	0	506	508	502	507	31	31	
4	0	0	0	0	503	511	505	512	31	31	
5	0	0	0	0	503	508	508	514	31	31	
6	0	0	0	0	503	510	517	519	31	31	
7	0	0	0	0	508	511	518	515	31	31	
8	0	0	0	0	511	508	507	509	31	31	
9	0	0	0	0	511	509	505	509	31	32	
10	0	0	0	0	505	513	501	507	31	32	
11	0	0	0	0	502	516	504	507	31	32	
12	0	0	0	0	502	516	505	508	31	32	
13	0	0	0	0	502	506	501	508	31	32	
14	0	0	0	0	503	505	501	507	31	32	
15	0	0	0	0	502	509	502	510	31	32	
0	0	0	0	0	504	510	497	511	31	31	
1	0	0	0	0	508	517	500	511	31	32	
2	0	0	0	0	500	523	507	514	31	31	
3	0	0	0	0	499	529	504	511	31	31	
4	0	0	0	0	493	531	507	508	31	31	
5	0	0	0	0	497	523	508	509	31	31	
6	0	0	0	0	503	517	509	508	31	31	
7	0	0	0	0	505	508	521	508	31	32	
8	0	0	0	0	505	502	510	509	31	32	
9	0	0	0	0	503	499	508	511	31	31	
10	0	0	0	0	503	503	504	510	31	32	
11	0	0	0	0	504	509	509	512	31	32	
12	0	0	0	0	508	510	506	511	31	31	
13	0	0	0	0	504	509	508	511	31	31	
14	0	0	0	0	508	507	516	512	31	31	
15	0	0	0	0	508	507	527	511	31	31	
0	0	0	0	0	508	508	515	509	31	31	
1	0	0	0	0	506	511	511	511	31	31	
2	0	0	0	0	505	512	501	511	31	31	
3	0	0	0	0	500	517	504	510	31	31	
4	0	0	0	0	502	520	502	509	31	31	
5	0	0	0	0	504	522	519	511	31	31	
6	0	0	0	0	502	519	521	510	31	32	
7	0	0	0	0	505	516	516	510	31	32	
8	0	0	0	0	504	516	515	510	31	31	
9	0	0	0	0	503	513	508	510	31	31	
10	0	0	0	0	505	512	501	513	31	31	
11	0	0	0	0	504	509	502	510	31	31	
12	0	0	0	0	505	505	497	510	31	31	
13	0	0	0	0	500	502	497	510	31	31	
14	0	0	0	0	503	505	505	511	31	32	
15	0	0	0	0	504	503	517	509	31	31	
0	0	0	0	0	507	510	508	511	31	32	
1	0	0	0	0	504	512	503	508	31	32	
2	0	0	0	0	503	515	502	510	31	32	
3	0	0	0	0	502	513	508	508	31	31	
4	0	0	0	0	504	516	503	509	31	31	
5	0	0	0	0	504	516	510	508	31	31	
6	0	0	0	0	508	516	513	510	31	31	
7	0	0	0	0	504	514	504	510	31	31	
8	0	0	0	0	504	513	513	513	31	31	
9	0	0	0	0	503	515	516	511	31	32	
10	0	0	0	0	501	512	508	509	31	31	
11	0	0	0	0	500	513	502	512	31	31	
12	0	0	0	0	502	513	505	511	31	31	
13	0	0	0	0	504	514	510	511	31	31	
14	0	0	0	0	507	514	515	509	31	31	
15	0	0	0	0	505	515	515	509	31	31	
0	0	0	0	0	504	515	506	511	31	31	
1	0	0	0	0	505	517	502	510	31	32	
2	0	0	0	0	499	523	510	512	31	32	
3	0	0	0	0	492	521	505	512	31	32	
4	0	0	0	0	494	519	511	511	31	32	
5	0	0	0	0	493	514	513	513	31	32	
6	0	0	0	0	500	510	522	510	31	32	
7	0	0	0	0	504	508	521	508	31	31	
8	0	0	0	0	505	504	523	509	31	31	
9	0	0	0	0	504	504	519	509	31	31	
10	0	0	0	0	507	501	518	510	31	31	
11	0	0	0	0	507	504	519	512	31	31	
12	0	0	0	0	506	505	518	509	31	31	
13	0	0	0	0	507	508	510	509	31	31	
14	0	0	0	0	505	507	500	508	31	31	
15	0	0	0	0	503	512	510	513	31	32	
0	0	0	0	0	502	514	497	511	31	31	
1	0	0	0	0	499	515	497	511	31	32	
2	0	0	0	0	503	515	512	509	31	32	
3	0	0	0	0	497	518	511	509	31	32	
4	0	0	0	0	499	511	510	508	31	31	
5	0	0	0	0	498	511	502	508	31	31	
6	0	0	0	0	496	512	512	508	31	31	
7	0	0	0	0	498	506	515	512	31	31	
8	0	0	0	0	498	508	522	512	31	31	
9	0	0	0	0	501	519	515	508	31	31	
10	0	0	0	0	505	526	513	509	31	31	
11	0	0	0	0	507	530	518	508	31	31	
12	0	0	0	0	510	519	504	510	31	31	
13	0	0	0	0	507	516	494	512	31	32	
14	0	0	0	0	506	509	503	511	31	31	
15	0	0	0	0	503	507	499	512	31	31	
0	0	0	0	0	501	503	496	509	31	31	
1	0	0	0	0	502	512	503	510	31	31	
2	0	0	0	0	504	521	512	509	31	31	
3	0	0	0	0	507	519	506	511	31	32	
4	0	0	0	0	504	511	501	509	31	32	
5	0	0	0	0	505	502	505	507	31	32	
6	0	0	0	0	513	496	504	508	31	32	
7	0	0	0	0	514	498	509	512	31	32	
8	0	0	0	0	505	501	516	510	31	31	
9	0	0	0	0	503	505	512	509	31	31	
10	0	0	0	0	503	515	519	508	31	32	
11	0	0	0	0	499	513	523	510	31	31	
12	0	0	0	0	499	513	518	510	31	32	
13	0	0	0	0	500	512	510	511	31	31	
14	0	0	0	0	502	516	509	512	31	31	
15	0	0	0	0	504	522	504	509	31	31	
0	0	0	0	0	502	523	506	510	31	31	
1	0	0	0	0	499	519	512	509	31	32	
2	0	0	0	0	500	512	513	513	31	32	
3	0	0	0	0	503	516	510	509	31	32	
4	0	0	0	0	505	517	505	509	31	32	
5	0	0	0	0	507	515	503	511	31	32	
6	0	0	0	0	511	513	498	510	31	31	
7	0	0	0	0	509	511	496	509	31	32	
8	0	0	0	0	505	512	500	511	31	32	
9	0	0	0	0	508	516	517	511	31	32	
10	0	0	0	0	513	514	519	511	31	31	
11	0	0	0	0	511	511	519	509	31	31	
12	0	0	0	0	507	512	513	510	31	31	
13	0	0	0	0	505	508	508	510	31	31	
14	0	0	0	0	503	505	504	508	31	31	
15	0	0	0	0	500	507	512	511	31	31	
0	0	0	0	0	501	505	511	510	31	31	
1	0	0	0	0	502	510	508	510	31	31	
2	0	0	0	0	503	511	511	510	31	31	
3	0	0	0	0	499	514	514	510	31	31	
4	0	0	0	0	498	512	514	509	31	31	
5	0	0	0	0	496	513	513	510	31	31	
6	0	0	0	0	495	510	505	508	31	32	
7	0	0	0	0	495	508	504	512	31	31	
8	0	0	0	0	502	508	512	510	31	31	
9	0	0	0	0	508	514	509	512	31	31	
10	0	0	0	0	508	517	516	510	31	31	
11	0	0	0	0	510	516	512	507	31	31	
12	0	0	0	0	509	515	507	510	31	31	
13	0	0	0	0	507	513	504	510	31	32	
14	0	0	0	0	508	510	511	511	31	31	
15	0	0	0	0	509	509	501	511	31	32	
0	0	0	0	0	508	512	497	512	31	32	
1	0	0	0	0	507	518	498	511	31	31	
2	0	0	0	0	502	518	495	509	31	31	
3	0	0	0	0	504	517	510	511	31	31	
4	0	0	0	0	504	518	517	511	31	31	
5	0	0	0	0	505	517	512	509	31	31	
