# OpenSignals Text File Format. Version 1
# {"20:19:07:00:80:D4": {"position": 0, "device": "bitalino_rev", "device name": "20:19:07:00:80:D4", "device connection": "BTH20:19:07:00:80:D4", "sampling rate": 1000, "resolution": [4, 1, 1, 1, 1, 10, 10, 10, 10], "firmware version": 1282, "comments": "", "keywords": "", "mode": 0, "sync interval": 2, "date": "2022-3-23", "time": "14:51:35.718", "channels": [1, 2, 3, 4], "sensor": ["RAW", "RAW", "RAW", "RAW"], "label": ["A1", "A2", "A3", "A4"], "column": ["nSeq", "I1", "I2", "O1", "O2", "A1", "A2", "A3", "A4"], "special": [{}, {}, {}, {}], "digital IO": [0, 0, 1, 1]}}
# EndOfHeader
0	0	0	0	0	515	1	0	0	
1	0	0	0	0	513	1	0	0	
2	0	0	0	0	512	1	0	0	
3	0	0	0	0	511	0	0	0	
4	0	0	0	0	510	1	0	0	
5	0	0	0	0	510	0	0	1	
6	0	0	0	0	512	1	0	0	
7	0	0	0	0	509	3	0	0	
8	0	0	0	0	512	1	0	0	
9	0	0	0	0	510	1	0	0	
10	0	0	0	0	511	1	0	0	
11	0	0	0	0	512	0	0	0	
12	0	0	0	0	513	1	0	0	
13	0	0	0	0	511	0	0	1	
14	0	0	0	0	510	1	0	0	
15	0	0	0	0	510	3	0	0	
0	0	0	0	0	509	1	0	0	
1	0	0	0	0	510	1	0	0	
2	0	0	0	0	511	1	0	0	
3	0	0	0	0	512	1	0	0	
4	0	0	0	0	511	1	0	0	
5	0	0	0	0	511	0	0	1	
6	0	0	0	0	511	1	0	0	
7	0	0	0	0	511	3	0	0	
8	0	0	0	0	511	1	0	0	
9	0	0	0	0	510	1	0	0	
10	0	0	0	0	512	1	0	0	
11	0	0	0	0	512	1	0	0	
12	0	0	0	0	513	1	0	0	
13	0	0	0	0	511	1	0	1	
14	0	0	0	0	512	1	0	0	
15	0	0	0	0	511	1	0	0	
0	0	0	0	0	512	1	0	0	
1	0	0	0	0	512	1	0	0	
2	0	0	0	0	512	1	0	0	
3	0	0	0	0	511	1	0	0	
4	0	0	0	0	509	1	0	0	
5	0	0	0	0	510	1	0	1	
6	0	0	0	0	511	1	0	0	
7	0	0	0	0	513	1	0	0	
8	0	0	0	0	512	1	0	0	
9	0	0	0	0	508	1	0	0	
10	0	0	0	0	509	1	0	0	
11	0	0	0	0	509	0	0	0	
12	0	0	0	0	511	1	0	0	
13	0	0	0	0	512	1	0	1	
14	0	0	0	0	512	1	0	0	
15	0	0	0	0	511	1	0	0	
0	0	0	0	0	510	1	0	0	
1	0	0	0	0	510	1	0	0	
2	0	0	0	0	511	1	0	0	
3	0	0	0	0	508	0	0	0	
4	0	0	0	0	509	1	0	0	
5	0	0	0	0	512	0	0	1	
6	0	0	0	0	513	1	0	0	
7	0	0	0	0	512	3	0	0	
8	0	0	0	0	513	1	0	0	
9	0	0	0	0	512	1	0	0	
10	0	0	0	0	512	1	0	0	
11	0	0	0	0	513	0	0	0	
12	0	0	0	0	515	1	0	0	
13	0	0	0	0	516	0	0	1	
14	0	0	0	0	513	1	0	0	
15	0	0	0	0	513	3	0	0	
0	0	0	0	0	509	1	0	0	
1	0	0	0	0	507	1	0	0	
2	0	0	0	0	506	1	0	0	
3	0	0	0	0	508	1	0	0	
4	0	0	0	0	510	1	0	0	
5	0	0	0	0	511	0	0	1	
6	0	0	0	0	508	1	0	0	
7	0	0	0	0	510	3	0	0	
8	0	0	0	0	513	1	0	0	
9	0	0	0	0	515	1	0	0	
10	0	0	0	0	513	1	0	0	
11	0	0	0	0	511	0	0	0	
12	0	0	0	0	513	1	0	0	
13	0	0	0	0	511	1	0	1	
14	0	0	0	0	512	1	0	0	
15	0	0	0	0	511	3	0	0	
0	0	0	0	0	512	1	0	0	
1	0	0	0	0	510	1	0	0	
2	0	0	0	0	509	1	0	0	
3	0	0	0	0	508	0	0	0	
4	0	0	0	0	509	1	0	0	
5	0	0	0	0	510	1	0	1	
6	0	0	0	0	509	1	0	0	
7	0	0	0	0	509	3	0	0	
8	0	0	0	0	512	1	0	0	
9	0	0	0	0	515	1	0	0	
10	0	0	0	0	515	1	0	0	
11	0	0	0	0	515	0	0	0	
12	0	0	0	0	512	1	0	0	
13	0	0	0	0	516	1	0	1	
14	0	0	0	0	512	1	0	0	
15	0	0	0	0	515	3	0	0	
0	0	0	0	0	512	1	0	0	
1	0	0	0	0	509	1	0	0	
2	0	0	0	0	508	0	0	0	
3	0	0	0	0	510	1	0	0	
4	0	0	0	0	508	1	0	0	
5	0	0	0	0	509	1	0	1	
6	0	0	0	0	507	1	0	0	
7	0	0	0	0	508	3	0	0	
8	0	0	0	0	509	1	0	0	
9	0	0	0	0	511	1	0	0	
10	0	0	0	0	511	0	0	0	
11	0	0	0	0	514	1	0	0	
12	0	0	0	0	516	1	0	0	
13	0	0	0	0	515	1	0	1	
14	0	0	0	0	514	1	0	0	
15	0	0	0	0	511	3	0	0	
0	0	0	0	0	514	1	0	0	
1	0	0	0	0	510	1	0	0	
2	0	0	0	0	511	0	0	0	
3	0	0	0	0	511	1	0	0	
4	0	0	0	0	510	1	0	0	
5	0	0	0	0	509	1	0	1	
6	0	0	0	0	508	1	0	0	
7	0	0	0	0	510	3	0	0	
8	0	0	0	0	511	0	0	0	
9	0	0	0	0	512	1	0	0	
10	0	0	0	0	510	1	0	0	
11	0	0	0	0	511	0	0	0	
12	0	0	0	0	511	1	0	0	
13	0	0	0	0	514	1	0	1	
14	0	0	0	0	515	1	0	0	
15	0	0	0	0	513	3	0	0	
0	0	0	0	0	512	1	0	0	
1	0	0	0	0	510	1	0	0	
2	0	0	0	0	508	1	0	0	
3	0	0	0	0	510	0	0	0	
4	0	0	0	0	510	1	0	0	
5	0	0	0	0	509	1	0	1	
6	0	0	0	0	511	1	0	0	
7	0	0	0	0	510	3	0	0	
8	0	0	0	0	511	1	0	0	
9	0	0	0	0	511	1	0	0	
10	0	0	0	0	511	1	0	0	
11	0	0	0	0	513	1	0	0	
12	0	0	0	0	512	1	0	0	
13	0	0	0	0	515	1	0	1	
14	0	0	0	0	513	1	0	0	
15	0	0	0	0	511	2	0	0	
0	0	0	0	0	510	1	0	0	
1	0	0	0	0	512	1	0	0	
2	0	0	0	0	510	1	0	0	
3	0	0	0	0	512	1	0	0	
4	0	0	0	0	512	1	0	0	
5	0	0	0	0	511	1	0	1	
6	0	0	0	0	510	1	0	0	
7	0	0	0	0	509	1	0	0	
8	0	0	0	0	511	1	0	0	
9	0	0	0	0	508	1	0	0	
10	0	0	0	0	510	1	0	0	
11	0	0	0	0	511	1	0	0	
12	0	0	0	0	513	1	0	0	
13	0	0	0	0	514	1	0	1	
14	0	0	0	0	512	1	0	0	
15	0	0	0	0	511	3	0	0	
0	0	0	0	0	512	0	0	0	
1	0	0	0	0	511	1	0	0	
2	0	0	0	0	513	1	0	0	
3	0	0	0	0	511	0	0	0	
4	0	0	0	0	510	1	0	0	
5	0	0	0	0	510	1	0	1	
6	0	0	0	0	509	1	0	0	
7	0	0	0	0	509	3	0	0	
8	0	0	0	0	512	0	0	0	
9	0	0	0	0	511	1	0	0	
10	0	0	0	0	511	1	0	0	
11	0	0	0	0	513	0	0	0	
12	0	0	0	0	514	1	0	0	
13	0	0	0	0	512	1	0	1	
14	0	0	0	0	512	1	0	0	
15	0	0	0	0	510	3	0	0	
0	0	0	0	0	511	0	0	0	
1	0	0	0	0	513	1	0	0	
2	0	0	0	0	512	1	0	0	
3	0	0	0	0	513	1	0	0	
4	0	0	0	0	513	1	0	0	
5	0	0	0	0	510	1	0	1	
6	0	0	0	0	510	1	0	0	
7	0	0	0	0	510	3	0	0	
8	0	0	0	0	511	1	0	0	
9	0	0	0	0	510	1	0	0	
10	0	0	0	0	509	0	0	0	
11	0	0	0	0	509	0	0	0	
12	0	0	0	0	510	1	0	0	
13	0	0	0	0	511	1	0	1	
14	0	0	0	0	515	1	0	0	
15	0	0	0	0	512	3	0	0	
0	0	0	0	0	512	1	0	0	
1	0	0	0	0	511	1	0	0	
2	0	0	0	0	511	0	0	0	
3	0	0	0	0	511	1	0	0	
4	0	0	0	0	512	1	0	0	
5	0	0	0	0	510	1	0	1	
6	0	0	0	0	512	1	0	0	
7	0	0	0	0	509	3	0	0	
8	0	0	0	0	510	1	0	0	
9	0	0	0	0	511	1	0	0	
10	0	0	0	0	512	1	0	0	
11	0	0	0	0	511	0	0	0	
12	0	0	0	0	513	1	0	0	
13	0	0	0	0	512	1	0	1	
14	0	0	0	0	514	1	0	0	
15	0	0	0	0	513	3	0	0	
0	0	0	0	0	512	1	0	0	
1	0	0	0	0	511	1	0	0	
2	0	0	0	0	511	1	0	0	
3	0	0	0	0	511	0	0	0	
4	0	0	0	0	511	1	0	0	
5	0	0	0	0	511	1	0	1	
6	0	0	0	0	510	1	0	0	
7	0	0	0	0	509	3	0	0	
8	0	0	0	0	512	1	0	0	
9	0	0	0	0	510	1	0	0	
10	0	0	0	0	512	1	0	0	
11	0	0	0	0	512	0	0	0	
12	0	0	0	0	511	1	0	0	
13	0	0	0	0	511	1	0	1	
14	0	0	0	0	514	1	0	0	
15	0	0	0	0	514	3	0	0	
0	0	0	0	0	512	1	0	0	
1	0	0	0	0	509	1	0	0	
2	0	0	0	0	510	1	0	0	
3	0	0	0	0	511	1	0	0	
4	0	0	0	0	514	1	0	0	
5	0	0	0	0	513	0	0	1	
6	0	0	0	0	511	1	0	0	
7	0	0	0	0	508	3	0	0	
8	0	0	0	0	510	1	0	0	
9	0	0	0	0	510	1	0	0	
10	0	0	0	0	508	1	0	0	
11	0	0	0	0	511	1	0	0	
12	0	0	0	0	513	1	0	0	
13	0	0	0	0	510	0	0	1	
14	0	0	0	0	512	1	0	0	
15	0	0	0	0	511	3	0	0	
0	0	0	0	0	514	1	0	0	
1	0	0	0	0	513	1	0	0	
2	0	0	0	0	512	1	0	0	
3	0	0	0	0	513	1	0	0	
4	0	0	0	0	510	1	0	0	
5	0	0	0	0	512	0	0	1	
6	0	0	0	0	511	1	0	0	
7	0	0	0	0	510	1	0	0	
8	0	0	0	0	511	1	0	0	
9	0	0	0	0	511	1	0	0	
10	0	0	0	0	508	1	0	0	
11	0	0	0	0	512	0	0	0	
12	0	0	0	0	510	1	0	0	
13	0	0	0	0	513	1	0	1	
14	0	0	0	0	511	1	0	0	
15	0	0	0	0	509	1	0	0	
0	0	0	0	0	512	1	0	0	
1	0	0	0	0	512	1	0	0	
2	0	0	0	0	512	1	0	0	
3	0	0	0	0	511	1	0	0	
4	0	0	0	0	510	1	0	0	
5	0	0	0	0	511	1	0	1	
6	0	0	0	0	513	1	0	0	
7	0	0	0	0	512	1	0	0	
8	0	0	0	0	512	1	0	0	
9	0	0	0	0	509	1	0	0	
10	0	0	0	0	510	1	0	0	
11	0	0	0	0	510	1	0	0	
12	0	0	0	0	509	1	0	0	
13	0	0	0	0	512	0	0	1	
14	0	0	0	0	513	1	0	0	
15	0	0	0	0	514	3	0	0	
0	0	0	0	0	514	1	0	0	
1	0	0	0	0	512	1	0	0	
2	0	0	0	0	511	1	0	0	
3	0	0	0	0	510	1	0	0	
4	0	0	0	0	510	1	0	0	
5	0	0	0	0	513	0	0	1	
6	0	0	0	0	512	1	0	0	
7	0	0	0	0	511	3	0	0	
8	0	0	0	0	512	1	0	0	
9	0	0	0	0	510	1	0	0	
10	0	0	0	0	512	1	0	0	
11	0	0	0	0	512	1	0	0	
12	0	0	0	0	510	1	0	0	
13	0	0	0	0	510	0	0	1	
14	0	0	0	0	513	1	0	0	
15	0	0	0	0	512	3	0	0	
0	0	0	0	0	513	1	0	0	
1	0	0	0	0	512	1	0	0	
2	0	0	0	0	511	1	0	0	
3	0	0	0	0	512	0	0	0	
4	0	0	0	0	511	1	0	0	
5	0	0	0	0	511	1	0	1	
6	0	0	0	0	510	1	0	0	
7	0	0	0	0	511	3	0	0	
8	0	0	0	0	511	1	0	0	
9	0	0	0	0	511	1	0	0	
10	0	0	0	0	511	1	0	0	
11	0	0	0	0	509	0	0	0	
12	0	0	0	0	510	1	0	0	
13	0	0	0	0	510	1	0	1	
14	0	0	0	0	512	1	0	0	
15	0	0	0	0	509	3	0	0	
0	0	0	0	0	511	1	0	0	
1	0	0	0	0	511	1	0	0	
2	0	0	0	0	513	1	0	0	
3	0	0	0	0	514	0	0	0	
4	0	0	0	0	512	1	0	0	
5	0	0	0	0	510	1	0	1	
6	0	0	0	0	512	1	0	0	
7	0	0	0	0	513	3	0	0	
8	0	0	0	0	515	1	0	0	
9	0	0	0	0	512	1	0	0	
10	0	0	0	0	511	0	0	0	
11	0	0	0	0	508	1	0	0	
12	0	0	0	0	507	1	0	0	
13	0	0	0	0	509	1	0	1	
14	0	0	0	0	508	1	0	0	
15	0	0	0	0	512	3	0	0	
0	0	0	0	0	510	1	0	0	
1	0	0	0	0	512	1	0	0	
2	0	0	0	0	514	0	0	0	
3	0	0	0	0	514	0	0	0	
4	0	0	0	0	511	1	0	0	
5	0	0	0	0	512	1	0	1	
6	0	0	0	0	512	1	0	0	
7	0	0	0	0	511	3	0	0	
8	0	0	0	0	513	1	0	0	
9	0	0	0	0	513	1	0	0	
10	0	0	0	0	512	0	0	0	
11	0	0	0	0	509	0	0	0	
12	0	0	0	0	507	1	0	0	
13	0	0	0	0	511	1	0	1	
14	0	0	0	0	510	1	0	0	
15	0	0	0	0	510	3	0	0	
0	0	0	0	0	510	0	0	0	
1	0	0	0	0	511	1	0	0	
2	0	0	0	0	510	1	0	0	
3	0	0	0	0	512	0	0	0	
4	0	0	0	0	513	1	0	0	
5	0	0	0	0	511	1	0	1	
6	0	0	0	0	514	1	0	0	
7	0	0	0	0	510	3	0	0	
8	0	0	0	0	512	0	0	0	
9	0	0	0	0	513	1	0	0	
10	0	0	0	0	512	1	0	0	
11	0	0	0	0	511	1	0	0	
12	0	0	0	0	510	1	0	0	
13	0	0	0	0	511	1	0	1	
14	0	0	0	0	511	1	0	0	
15	0	0	0	0	509	3	0	0	
0	0	0	0	0	510	0	0	0	
1	0	0	0	0	508	1	0	0	
2	0	0	0	0	512	1	0	0	
3	0	0	0	0	512	1	0	0	
4	0	0	0	0	512	1	0	0	
5	0	0	0	0	513	1	0	1	
6	0	0	0	0	512	1	0	0	
7	0	0	0	0	513	1	0	0	
8	0	0	0	0	512	1	0	0	
9	0	0	0	0	510	1	0	0	
10	0	0	0	0	512	1	0	0	
11	0	0	0	0	512	0	0	0	
12	0	0	0	0	511	1	0	0	
13	0	0	0	0	510	1	0	1	
14	0	0	0	0	508	1	0	0	
15	0	0	0	0	510	1	0	0	
0	0	0	0	0	511	1	0	0	
1	0	0	0	0	513	1	0	0	
2	0	0	0	0	511	1	0	0	
3	0	0	0	0	510	0	0	0	
4	0	0	0	0	511	1	0	0	
5	0	0	0	0	513	1	0	1	
6	0	0	0	0	513	1	0	0	
7	0	0	0	0	513	2	0	0	
8	0	0	0	0	513	1	0	0	
9	0	0	0	0	511	1	0	0	
10	0	0	0	0	511	1	0	0	
11	0	0	0	0	510	0	0	0	
12	0	0	0	0	511	1	0	0	
13	0	0	0	0	510	1	0	1	
14	0	0	0	0	509	1	0	0	
15	0	0	0	0	509	3	0	0	
0	0	0	0	0	510	0	0	0	
1	0	0	0	0	511	1	0	0	
2	0	0	0	0	510	1	0	0	
3	0	0	0	0	510	1	0	0	
4	0	0	0	0	508	1	0	0	
5	0	0	0	0	512	1	0	1	
6	0	0	0	0	514	1	0	0	
7	0	0	0	0	511	3	0	0	
8	0	0	0	0	510	1	0	0	
9	0	0	0	0	510	1	0	0	
10	0	0	0	0	513	1	0	0	
11	0	0	0	0	511	1	0	0	
12	0	0	0	0	511	1	0	0	
13	0	0	0	0	511	1	0	1	
14	0	0	0	0	510	1	0	0	
15	0	0	0	0	511	3	0	0	
0	0	0	0	0	508	1	0	0	
1	0	0	0	0	509	1	0	0	
2	0	0	0	0	510	0	0	0	
3	0	0	0	0	511	1	0	0	
4	0	0	0	0	513	1	0	0	
5	0	0	0	0	510	1	0	1	
6	0	0	0	0	512	1	0	0	
7	0	0	0	0	511	3	0	0	
8	0	0	0	0	513	1	0	0	
9	0	0	0	0	512	1	0	0	
10	0	0	0	0	511	0	0	0	
11	0	0	0	0	510	0	0	0	
12	0	0	0	0	510	1	0	0	
13	0	0	0	0	512	1	0	1	
14	0	0	0	0	511	1	0	0	
15	0	0	0	0	511	3	0	0	
0	0	0	0	0	511	1	0	0	
1	0	0	0	0	510	1	0	0	
2	0	0	0	0	511	0	0	0	
3	0	0	0	0	513	0	0	0	
4	0	0	0	0	510	1	0	0	
5	0	0	0	0	511	1	0	1	
6	0	0	0	0	512	1	0	0	
7	0	0	0	0	512	3	0	0	
8	0	0	0	0	515	1	0	0	
9	0	0	0	0	512	1	0	0	
10	0	0	0	0	512	1	0	0	
11	0	0	0	0	511	0	0	0	
12	0	0	0	0	511	1	0	0	
13	0	0	0	0	511	1	0	1	
14	0	0	0	0	511	1	0	0	
15	0	0	0	0	510	3	0	0	
0	0	0	0	0	509	1	0	0	
1	0	0	0	0	511	1	0	0	
2	0	0	0	0	512	1	0	0	
3	0	0	0	0	509	0	0	0	
4	0	0	0	0	511	1	0	0	
5	0	0	0	0	511	1	0	1	
6	0	0	0	0	512	1	0	0	
7	0	0	0	0	515	3	0	0	
8	0	0	0	0	513	1	0	0	
9	0	0	0	0	510	1	0	0	
10	0	0	0	0	513	1	0	0	
11	0	0	0	0	511	1	0	0	
12	0	0	0	0	514	1	0	0	
13	0	0	0	0	513	0	0	1	
14	0	0	0	0	512	1	0	0	
15	0	0	0	0	510	3	0	0	
0	0	0	0	0	510	1	0	0	
1	0	0	0	0	510	1	0	0	
2	0	0	0	0	511	1	0	0	
3	0	0	0	0	509	0	0	0	
4	0	0	0	0	509	1	0	0	
5	0	0	0	0	510	0	0	1	
6	0	0	0	0	511	1	0	0	
7	0	0	0	0	512	3	0	0	
8	0	0	0	0	513	1	0	0	
9	0	0	0	0	512	1	0	0	
10	0	0	0	0	512	1	0	0	
11	0	0	0	0	509	0	0	0	
12	0	0	0	0	512	1	0	0	
13	0	0	0	0	510	0	0	1	
14	0	0	0	0	514	1	0	0	
15	0	0	0	0	511	3	0	0	
0	0	0	0	0	510	1	0	0	
1	0	0	0	0	509	1	0	0	
2	0	0	0	0	509	1	0	0	
3	0	0	0	0	511	1	0	0	
4	0	0	0	0	511	1	0	0	
5	0	0	0	0	512	1	0	1	
6	0	0	0	0	511	1	0	0	
7	0	0	0	0	512	1	0	0	
8	0	0	0	0	513	1	0	0	
9	0	0	0	0	513	1	0	0	
10	0	0	0	0	514	1	0	0	
11	0	0	0	0	512	1	0	0	
12	0	0	0	0	511	1	0	0	
13	0	0	0	0	512	1	0	1	
14	0	0	0	0	512	1	0	0	
15	0	0	0	0	513	1	0	0	
0	0	0	0	0	512	1	0	0	
1	0	0	0	0	511	1	0	0	
2	0	0	0	0	512	1	0	0	
3	0	0	0	0	512	1	0	0	
4	0	0	0	0	512	1	0	0	
5	0	0	0	0	510	1	0	1	
6	0	0	0	0	512	1	0	0	
7	0	0	0	0	512	3	0	0	
8	0	0	0	0	511	1	0	0	
9	0	0	0	0	511	1	0	0	
10	0	0	0	0	511	1	0	0	
11	0	0	0	0	513	1	0	0	
12	0	0	0	0	510	1	0	0	
13	0	0	0	0	511	0	0	1	
14	0	0	0	0	511	1	0	0	
15	0	0	0	0	513	3	0	0	
0	0	0	0	0	512	1	0	0	
1	0	0	0	0	512	1	0	0	
2	0	0	0	0	511	1	0	0	
3	0	0	0	0	508	0	0	0	
4	0	0	0	0	510	1	0	0	
5	0	0	0	0	509	0	0	1	
6	0	0	0	0	509	1	0	0	
7	0	0	0	0	512	3	0	0	
8	0	0	0	0	513	1	0	0	
9	0	0	0	0	515	1	0	0	
10	0	0	0	0	513	1	0	0	
11	0	0	0	0	512	0	0	0	
12	0	0	0	0	511	1	0	0	
13	0	0	0	0	513	1	0	1	
14	0	0	0	0	511	1	0	0	
15	0	0	0	0	512	3	0	0	
0	0	0	0	0	511	1	0	0	
1	0	0	0	0	511	1	0	0	
2	0	0	0	0	510	1	0	0	
3	0	0	0	0	509	0	0	0	
4	0	0	0	0	508	1	0	0	
5	0	0	0	0	511	1	0	1	
6	0	0	0	0	509	1	0	0	
7	0	0	0	0	512	3	0	0	
8	0	0	0	0	513	1	0	0	
9	0	0	0	0	511	1	0	0	
10	0	0	0	0	512	1	0	0	
11	0	0	0	0	512	0	0	0	
12	0	0	0	0	511	1	0	0	
13	0	0	0	0	511	1	0	1	
14	0	0	0	0	511	1	0	0	
15	0	0	0	0	511	3	0	0	
0	0	0	0	0	515	1	0	0	
1	0	0	0	0	512	1	0	0	
2	0	0	0	0	512	0	0	0	
3	0	0	0	0	512	0	0	0	
4	0	0	0	0	510	1	0	0	
5	0	0	0	0	510	1	0	1	
6	0	0	0	0	510	1	0	0	
7	0	0	0	0	510	3	0	0	
8	0	0	0	0	511	1	0	0	
9	0	0	0	0	510	1	0	0	
10	0	0	0	0	512	0	0	0	
11	0	0	0	0	512	0	0	0	
12	0	0	0	0	512	1	0	0	
13	0	0	0	0	513	1	0	1	
14	0	0	0	0	512	1	0	0	
15	0	0	0	0	511	3	0	0	
0	0	0	0	0	514	1	0	0	
1	0	0	0	0	513	1	0	0	
2	0	0	0	0	511	0	0	0	
3	0	0	0	0	509	0	0	0	
4	0	0	0	0	510	1	0	0	
5	0	0	0	0	509	1	0	1	
6	0	0	0	0	510	1	0	0	
7	0	0	0	0	512	3	0	0	
8	0	0	0	0	514	1	0	0	
9	0	0	0	0	514	1	0	0	
10	0	0	0	0	511	1	0	0	
11	0	0	0	0	510	1	0	0	
12	0	0	0	0	510	1	0	0	
13	0	0	0	0	515	1	0	1	
14	0	0	0	0	512	1	0	0	
15	0	0	0	0	510	3	0	0	
0	0	0	0	0	511	1	0	0	
1	0	0	0	0	511	1	0	0	
2	0	0	0	0	513	1	0	0	
3	0	0	0	0	511	1	0	0	
4	0	0	0	0	511	1	0	0	
5	0	0	0	0	508	1	0	1	
6	0	0	0	0	508	1	0	0	
7	0	0	0	0	510	3	0	0	
8	0	0	0	0	511	0	0	0	
9	0	0	0	0	512	1	0	0	
10	0	0	0	0	511	1	0	0	
11	0	0	0	0	512	0	0	0	
12	0	0	0	0	511	1	0	0	
13	0	0	0	0	511	1	0	1	
14	0	0	0	0	511	1	0	0	
15	0	0	0	0	510	1	0	0	
0	0	0	0	0	510	1	0	0	
1	0	0	0	0	513	1	0	0	
2	0	0	0	0	514	1	0	0	
3	0	0	0	0	512	1	0	0	
4	0	0	0	0	512	1	0	0	
5	0	0	0	0	508	1	0	1	
6	0	0	0	0	510	1	0	0	
7	0	0	0	0	509	1	0	0	
8	0	0	0	0	512	1	0	0	
9	0	0	0	0	512	1	0	0	
10	0	0	0	0	512	1	0	0	
11	0	0	0	0	509	0	0	0	
12	0	0	0	0	511	1	0	0	
13	0	0	0	0	513	1	0	1	
14	0	0	0	0	512	1	0	0	
15	0	0	0	0	511	1	0	0	
0	0	0	0	0	512	1	0	0	
1	0	0	0	0	511	1	0	0	
2	0	0	0	0	511	1	0	0	
3	0	0	0	0	511	1	0	0	
4	0	0	0	0	510	1	0	0	
5	0	0	0	0	511	1	0	1	
6	0	0	0	0	510	1	0	0	
7	0	0	0	0	511	3	0	0	
8	0	0	0	0	511	1	0	0	
9	0	0	0	0	511	1	0	0	
10	0	0	0	0	510	1	0	0	
11	0	0	0	0	511	1	0	0	
12	0	0	0	0	511	1	0	0	
13	0	0	0	0	511	1	0	1	
14	0	0	0	0	514	1	0	0	
15	0	0	0	0	514	3	0	0	
0	0	0	0	0	513	1	0	0	
1	0	0	0	0	509	1	0	0	
2	0	0	0	0	511	1	0	0	
3	0	0	0	0	512	1	0	0	
4	0	0	0	0	512	1	0	0	
5	0	0	0	0	509	1	0	1	
6	0	0	0	0	510	1	0	0	
7	0	0	0	0	511	3	0	0	
8	0	0	0	0	511	1	0	0	
9	0	0	0	0	512	1	0	0	
10	0	0	0	0	510	0	0	0	
11	0	0	0	0	512	1	0	0	
12	0	0	0	0	511	1	0	0	
13	0	0	0	0	511	1	0	1	
14	0	0	0	0	513	1	0	0	
15	0	0	0	0	514	3	0	0	
0	0	0	0	0	513	1	0	0	
1	0	0	0	0	513	1	0	0	
2	0	0	0	0	511	0	0	0	
3	0	0	0	0	511	1	0	0	
4	0	0	0	0	510	1	0	0	
5	0	0	0	0	511	1	0	1	
6	0	0	0	0	511	1	0	0	
7	0	0	0	0	508	3	0	0	
8	0	0	0	0	511	1	0	0	
9	0	0	0	0	510	1	0	0	
10	0	0	0	0	510	0	0	0	
11	0	0	0	0	509	1	0	0	
12	0	0	0	0	511	1	0	0	
13	0	0	0	0	510	1	0	1	
14	0	0	0	0	512	1	0	0	
15	0	0	0	0	512	3	0	0	
0	0	0	0	0	512	1	0	0	
1	0	0	0	0	511	1	0	0	
2	0	0	0	0	511	1	0	0	
3	0	0	0	0	511	0	0	0	
4	0	0	0	0	512	1	0	0	
5	0	0	0	0	512	1	0	1	
6	0	0	0	0	515	1	0	0	
7	0	0	0	0	514	3	0	0	
8	0	0	0	0	512	1	0	0	
9	0	0	0	0	509	1	0	0	
10	0	0	0	0	511	1	0	0	
11	0	0	0	0	509	0	0	0	
12	0	0	0	0	508	1	0	0	
13	0	0	0	0	510	1	0	1	
14	0	0	0	0	511	1	0	0	
15	0	0	0	0	511	3	0	0	
0	0	0	0	0	515	1	0	0	
1	0	0	0	0	512	1	0	0	
2	0	0	0	0	512	1	0	0	
3	0	0	0	0	513	0	0	0	
4	0	0	0	0	513	1	0	0	
5	0	0	0	0	511	0	0	1	
6	0	0	0	0	512	1	0	0	
7	0	0	0	0	513	3	0	0	
8	0	0	0	0	510	1	0	0	
9	0	0	0	0	509	1	0	0	
10	0	0	0	0	511	1	0	0	
11	0	0	0	0	509	1	0	0	
12	0	0	0	0	510	1	0	0	
13	0	0	0	0	512	0	0	1	
14	0	0	0	0	511	1	0	0	
15	0	0	0	0	512	3	0	0	
0	0	0	0	0	512	1	0	0	
1	0	0	0	0	512	1	0	0	
2	0	0	0	0	512	1	0	0	
3	0	0	0	0	514	1	0	0	
4	0	0	0	0	512	1	0	0	
5	0	0	0	0	511	0	0	1	
6	0	0	0	0	510	1	0	0	
7	0	0	0	0	511	3	0	0	
8	0	0	0	0	512	1	0	0	
9	0	0	0	0	511	1	0	0	
10	0	0	0	0	509	1	0	0	
11	0	0	0	0	509	0	0	0	
12	0	0	0	0	511	1	0	0	
13	0	0	0	0	508	1	0	1	
14	0	0	0	0	512	1	0	0	
15	0	0	0	0	511	1	0	0	
0	0	0	0	0	512	1	0	0	
1	0	0	0	0	513	1	0	0	
2	0	0	0	0	513	1	0	0	
3	0	0	0	0	512	1	0	0	
4	0	0	0	0	512	1	0	0	
5	0	0	0	0	512	1	0	1	
6	0	0	0	0	510	1	0	0	
7	0	0	0	0	511	1	0	0	
8	0	0	0	0	511	1	0	0	
9	0	0	0	0	510	1	0	0	
10	0	0	0	0	510	1	0	0	
11	0	0	0	0	512	0	0	0	
12	0	0	0	0	509	1	0	0	
13	0	0	0	0	509	1	0	1	
14	0	0	0	0	510	1	0	0	
15	0	0	0	0	514	1	0	0	
0	0	0	0	0	513	1	0	0	
1	0	0	0	0	512	1	0	0	
2	0	0	0	0	514	1	0	0	
3	0	0	0	0	513	1	0	0	
4	0	0	0	0	513	1	0	0	
5	0	0	0	0	511	0	0	1	
6	0	0	0	0	511	1	0	0	
7	0	0	0	0	511	3	0	0	
8	0	0	0	0	513	1	0	0	
9	0	0	0	0	510	1	0	0	
10	0	0	0	0	510	1	0	0	
11	0	0	0	0	510	1	0	0	
12	0	0	0	0	510	1	0	0	
13	0	0	0	0	510	0	0	1	
14	0	0	0	0	510	1	0	0	
15	0	0	0	0	509	3	0	0	
0	0	0	0	0	511	1	0	0	
1	0	0	0	0	512	1	0	0	
2	0	0	0	0	513	1	0	0	
3	0	0	0	0	511	0	0	0	
4	0	0	0	0	512	1	0	0	
5	0	0	0	0	511	0	0	1	
6	0	0	0	0	513	1	0	0	
7	0	0	0	0	514	3	0	0	
8	0	0	0	0	512	1	0	0	
9	0	0	0	0	512	1	0	0	
10	0	0	0	0	512	1	0	0	
11	0	0	0	0	511	0	0	0	
12	0	0	0	0	511	1	0	0	
13	0	0	0	0	512	1	0	1	
14	0	0	0	0	508	1	0	0	
15	0	0	0	0	510	3	0	0	
0	0	0	0	0	512	1	0	0	
1	0	0	0	0	510	1	0	0	
2	0	0	0	0	513	1	0	0	
3	0	0	0	0	510	0	0	0	
4	0	0	0	0	514	1	0	0	
5	0	0	0	0	514	1	0	1	
6	0	0	0	0	512	1	0	0	
7	0	0	0	0	512	3	0	0	
8	0	0	0	0	512	1	0	0	
9	0	0	0	0	511	1	0	0	
10	0	0	0	0	513	1	0	0	
11	0	0	0	0	511	0	0	0	
12	0	0	0	0	509	1	0	0	
13	0	0	0	0	509	1	0	1	
14	0	0	0	0	509	1	0	0	
15	0	0	0	0	509	3	0	0	
0	0	0	0	0	511	1	0	0	
1	0	0	0	0	511	1	0	0	
2	0	0	0	0	512	0	0	0	
3	0	0	0	0	510	1	0	0	
4	0	0	0	0	513	1	0	0	
5	0	0	0	0	513	1	0	1	
6	0	0	0	0	510	1	0	0	
7	0	0	0	0	511	3	0	0	
8	0	0	0	0	513	1	0	0	
9	0	0	0	0	513	1	0	0	
10	0	0	0	0	516	0	0	0	
11	0	0	0	0	513	0	0	0	
12	0	0	0	0	511	1	0	0	
13	0	0	0	0	509	1	0	1	
14	0	0	0	0	509	1	0	0	
15	0	0	0	0	509	3	0	0	
0	0	0	0	0	509	1	0	0	
1	0	0	0	0	508	1	0	0	
2	0	0	0	0	510	1	0	0	
3	0	0	0	0	511	0	0	0	
4	0	0	0	0	511	1	0	0	
5	0	0	0	0	511	1	0	1	
6	0	0	0	0	513	1	0	0	
7	0	0	0	0	512	3	0	0	
8	0	0	0	0	511	0	0	0	
9	0	0	0	0	511	1	0	0	
10	0	0	0	0	513	1	0	0	
11	0	0	0	0	510	0	0	0	
12	0	0	0	0	511	1	0	0	
13	0	0	0	0	511	1	0	1	
14	0	0	0	0	509	1	0	0	
15	0	0	0	0	511	3	0	0	
0	0	0	0	0	512	0	0	0	
1	0	0	0	0	511	1	0	0	
2	0	0	0	0	512	1	0	0	
3	0	0	0	0	512	0	0	0	
4	0	0	0	0	511	1	0	0	
5	0	0	0	0	513	1	0	1	
6	0	0	0	0	513	1	0	0	
7	0	0	0	0	512	3	0	0	
8	0	0	0	0	512	1	0	0	
9	0	0	0	0	512	1	0	0	
10	0	0	0	0	511	1	0	0	
11	0	0	0	0	511	1	0	0	
12	0	0	0	0	509	1	0	0	
13	0	0	0	0	512	1	0	1	
14	0	0	0	0	510	1	0	0	
15	0	0	0	0	509	1	0	0	
0	0	0	0	0	508	1	0	0	
1	0	0	0	0	510	1	0	0	
2	0	0	0	0	511	1	0	0	
3	0	0	0	0	511	0	0	0	
4	0	0	0	0	512	1	0	0	
5	0	0	0	0	515	1	0	1	
6	0	0	0	0	512	1	0	0	
7	0	0	0	0	512	1	0	0	
8	0	0	0	0	512	1	0	0	
9	0	0	0	0	512	1	0	0	
10	0	0	0	0	513	1	0	0	
11	0	0	0	0	512	0	0	0	
12	0	0	0	0	512	1	0	0	
13	0	0	0	0	512	1	0	1	
14	0	0	0	0	511	1	0	0	
15	0	0	0	0	509	3	0	0	
0	0	0	0	0	507	0	0	0	
1	0	0	0	0	510	1	0	0	
2	0	0	0	0	509	1	0	0	
3	0	0	0	0	511	0	0	0	
4	0	0	0	0	511	1	0	0	
5	0	0	0	0	510	1	0	1	
6	0	0	0	0	512	1	0	0	
7	0	0	0	0	512	3	0	0	
8	0	0	0	0	513	0	0	0	
9	0	0	0	0	514	1	0	0	
10	0	0	0	0	511	1	0	0	
11	0	0	0	0	510	0	0	0	
12	0	0	0	0	512	1	0	0	
13	0	0	0	0	513	1	0	1	
14	0	0	0	0	511	1	0	0	
15	0	0	0	0	509	3	0	0	
0	0	0	0	0	511	0	0	0	
1	0	0	0	0	512	1	0	0	
2	0	0	0	0	512	1	0	0	
3	0	0	0	0	512	0	0	0	
4	0	0	0	0	511	1	0	0	
5	0	0	0	0	511	1	0	1	
6	0	0	0	0	511	1	0	0	
7	0	0	0	0	511	3	0	0	
8	0	0	0	0	512	1	0	0	
9	0	0	0	0	512	1	0	0	
10	0	0	0	0	513	0	0	0	
11	0	0	0	0	513	1	0	0	
12	0	0	0	0	511	1	0	0	
13	0	0	0	0	513	1	0	1	
14	0	0	0	0	512	1	0	0	
15	0	0	0	0	511	3	0	0	
0	0	0	0	0	510	1	0	0	
1	0	0	0	0	510	1	0	0	
2	0	0	0	0	509	0	0	0	
3	0	0	0	0	510	1	0	0	
4	0	0	0	0	511	1	0	0	
5	0	0	0	0	510	1	0	1	
6	0	0	0	0	510	1	0	0	
7	0	0	0	0	512	3	0	0	
8	0	0	0	0	512	1	0	0	
9	0	0	0	0	512	1	0	0	
10	0	0	0	0	512	1	0	0	
11	0	0	0	0	511	0	0	0	
12	0	0	0	0	512	1	0	0	
13	0	0	0	0	513	1	0	1	
14	0	0	0	0	511	1	0	0	
15	0	0	0	0	510	3	0	0	
0	0	0	0	0	509	1	0	0	
1	0	0	0	0	510	1	0	0	
2	0	0	0	0	508	1	0	0	
3	0	0	0	0	510	0	0	0	
4	0	0	0	0	510	1	0	0	
5	0	0	0	0	512	1	0	1	
6	0	0	0	0	513	1	0	0	
7	0	0	0	0	511	3	0	0	
8	0	0	0	0	512	1	0	0	
9	0	0	0	0	512	1	0	0	
10	0	0	0	0	513	1	0	0	
11	0	0	0	0	512	0	0	0	
12	0	0	0	0	512	1	0	0	
13	0	0	0	0	514	1	0	1	
14	0	0	0	0	512	1	0	0	
15	0	0	0	0	512	3	0	0	
0	0	0	0	0	512	1	0	0	
1	0	0	0	0	510	1	0	0	
2	0	0	0	0	508	1	0	0	
3	0	0	0	0	511	1	0	0	
4	0	0	0	0	512	1	0	0	
5	0	0	0	0	510	0	0	1	
6	0	0	0	0	511	1	0	0	
7	0	0	0	0	509	3	0	0	
8	0	0	0	0	510	1	0	0	
9	0	0	0	0	513	1	0	0	
10	0	0	0	0	513	1	0	0	
11	0	0	0	0	510	1	0	0	
12	0	0	0	0	511	1	0	0	
13	0	0	0	0	512	0	0	1	
14	0	0	0	0	514	1	0	0	
15	0	0	0	0	512	3	0	0	
0	0	0	0	0	511	1	0	0	
1	0	0	0	0	511	1	0	0	
2	0	0	0	0	510	1	0	0	
3	0	0	0	0	511	1	0	0	
4	0	0	0	0	510	1	0	0	
5	0	0	0	0	511	1	0	1	
6	0	0	0	0	511	1	0	0	
7	0	0	0	0	511	1	0	0	
8	0	0	0	0	512	1	0	0	
9	0	0	0	0	511	1	0	0	
10	0	0	0	0	511	1	0	0	
11	0	0	0	0	512	1	0	0	
12	0	0	0	0	513	1	0	0	
13	0	0	0	0	512	1	0	1	
14	0	0	0	0	512	1	0	0	
15	0	0	0	0	512	1	0	0	
0	0	0	0	0	509	1	0	0	
1	0	0	0	0	508	1	0	0	
2	0	0	0	0	512	1	0	0	
3	0	0	0	0	508	1	0	0	
4	0	0	0	0	510	1	0	0	
5	0	0	0	0	513	1	0	1	
6	0	0	0	0	510	1	0	0	
7	0	0	0	0	512	1	0	0	
8	0	0	0	0	513	1	0	0	
9	0	0	0	0	511	1	0	0	
10	0	0	0	0	515	1	0	0	
11	0	0	0	0	512	1	0	0	
12	0	0	0	0	511	1	0	0	
13	0	0	0	0	512	0	0	1	
14	0	0	0	0	513	1	0	0	
15	0	0	0	0	510	3	0	0	
0	0	0	0	0	512	1	0	0	
1	0	0	0	0	513	1	0	0	
2	0	0	0	0	510	1	0	0	
3	0	0	0	0	509	0	0	0	
4	0	0	0	0	507	1	0	0	
5	0	0	0	0	508	0	0	1	
6	0	0	0	0	509	1	0	0	
7	0	0	0	0	511	3	0	0	
8	0	0	0	0	515	1	0	0	
9	0	0	0	0	512	1	0	0	
10	0	0	0	0	513	1	0	0	
11	0	0	0	0	517	0	0	0	
12	0	0	0	0	512	1	0	0	
13	0	0	0	0	512	0	0	1	
14	0	0	0	0	511	1	0	0	
15	0	0	0	0	511	3	0	0	
0	0	0	0	0	512	1	0	0	
1	0	0	0	0	513	1	0	0	
2	0	0	0	0	511	1	0	0	
3	0	0	0	0	507	0	0	0	
4	0	0	0	0	509	1	0	0	
5	0	0	0	0	511	1	0	1	
6	0	0	0	0	511	1	0	0	
7	0	0	0	0	513	3	0	0	
8	0	0	0	0	513	1	0	0	
9	0	0	0	0	511	1	0	0	
10	0	0	0	0	511	1	0	0	
11	0	0	0	0	510	0	0	0	
12	0	0	0	0	510	1	0	0	
13	0	0	0	0	512	1	0	1	
14	0	0	0	0	512	1	0	0	
15	0	0	0	0	512	3	0	0	
0	0	0	0	0	512	1	0	0	
1	0	0	0	0	510	1	0	0	
2	0	0	0	0	512	1	0	0	
3	0	0	0	0	512	0	0	0	
4	0	0	0	0	509	1	0	0	
5	0	0	0	0	509	1	0	1	
6	0	0	0	0	510	1	0	0	
7	0	0	0	0	511	3	0	0	
8	0	0	0	0	508	1	0	0	
9	0	0	0	0	510	1	0	0	
10	0	0	0	0	510	0	0	0	
11	0	0	0	0	512	1	0	0	
12	0	0	0	0	511	1	0	0	
13	0	0	0	0	515	1	0	1	
14	0	0	0	0	512	1	0	0	
15	0	0	0	0	514	3	0	0	
0	0	0	0	0	512	1	0	0	
1	0	0	0	0	511	1	0	0	
2	0	0	0	0	512	0	0	0	
3	0	0	0	0	512	0	0	0	
4	0	0	0	0	511	1	0	0	
5	0	0	0	0	511	1	0	1	
6	0	0	0	0	510	1	0	0	
7	0	0	0	0	508	3	0	0	
8	0	0	0	0	511	1	0	0	
9	0	0	0	0	511	1	0	0	
10	0	0	0	0	512	0	0	0	
11	0	0	0	0	510	1	0	0	
12	0	0	0	0	512	1	0	0	
13	0	0	0	0	512	1	0	1	
14	0	0	0	0	511	1	0	0	
15	0	0	0	0	513	3	0	0	
0	0	0	0	0	511	0	0	0	
1	0	0	0	0	512	1	0	0	
2	0	0	0	0	511	1	0	0	
3	0	0	0	0	511	1	0	0	
4	0	0	0	0	511	1	0	0	
5	0	0	0	0	511	1	0	1	
6	0	0	0	0	511	1	0	0	
7	0	0	0	0	509	3	0	0	
8	0	0	0	0	509	1	0	0	
9	0	0	0	0	512	1	0	0	
10	0	0	0	0	511	1	0	0	
11	0	0	0	0	512	0	0	0	
12	0	0	0	0	511	1	0	0	
13	0	0	0	0	509	1	0	1	
14	0	0	0	0	512	1	0	0	
15	0	0	0	0	511	3	0	0	
0	0	0	0	0	513	1	0	0	
1	0	0	0	0	511	1	0	0	
2	0	0	0	0	511	1	0	0	
3	0	0	0	0	511	0	0	0	
4	0	0	0	0	514	1	0	0	
5	0	0	0	0	512	1	0	1	
6	0	0	0	0	510	1	0	0	
7	0	0	0	0	513	1	0	0	
8	0	0	0	0	512	1	0	0	
9	0	0	0	0	512	1	0	0	
10	0	0	0	0	509	1	0	0	
11	0	0	0	0	512	1	0	0	
12	0	0	0	0	510	1	0	0	
13	0	0	0	0	510	1	0	1	
14	0	0	0	0	513	1	0	0	
15	0	0	0	0	516	1	0	0	
0	0	0	0	0	511	1	0	0	
1	0	0	0	0	511	1	0	0	
2	0	0	0	0	509	1	0	0	
3	0	0	0	0	509	1	0	0	
4	0	0	0	0	511	1	0	0	
5	0	0	0	0	511	1	0	1	
6	0	0	0	0	512	1	0	0	
7	0	0	0	0	512	1	0	0	
8	0	0	0	0	512	0	0	0	
9	0	0	0	0	511	1	0	0	
10	0	0	0	0	511	1	0	0	
11	0	0	0	0	510	1	0	0	
12	0	0	0	0	510	1	0	0	
13	0	0	0	0	511	1	0	1	
14	0	0	0	0	511	1	0	0	
15	0	0	0	0	512	3	0	0	
0	0	0	0	0	513	1	0	0	
1	0	0	0	0	513	1	0	0	
2	0	0	0	0	512	1	0	0	
3	0	0	0	0	511	1	0	0	
4	0	0	0	0	510	1	0	0	
5	0	0	0	0	512	1	0	1	
6	0	0	0	0	512	1	0	0	
7	0	0	0	0	512	3	0	0	
8	0	0	0	0	510	0	0	0	
9	0	0	0	0	509	1	0	0	
10	0	0	0	0	508	1	0	0	
11	0	0	0	0	510	0	0	0	
12	0	0	0	0	510	1	0	0	
13	0	0	0	0	514	1	0	1	
14	0	0	0	0	511	1	0	0	
15	0	0	0	0	511	3	0	0	
0	0	0	0	0	513	1	0	0	
1	0	0	0	0	514	1	0	0	
2	0	0	0	0	512	0	0	0	
3	0	0	0	0	513	0	0	0	
4	0	0	0	0	512	1	0	0	
5	0	0	0	0	511	1	0	1	
6	0	0	0	0	511	1	0	0	
7	0	0	0	0	511	3	0	0	
8	0	0	0	0	510	1	0	0	
9	0	0	0	0	510	1	0	0	
10	0	0	0	0	511	0	0	0	
11	0	0	0	0	508	1	0	0	
12	0	0	0	0	508	1	0	0	
13	0	0	0	0	510	1	0	1	
14	0	0	0	0	511	1	0	0	
15	0	0	0	0	512	3	0	0	
0	0	0	0	0	512	1	0	0	
1	0	0	0	0	512	1	0	0	
2	0	0	0	0	512	0	0	0	
3	0	0	0	0	511	1	0	0	
4	0	0	0	0	513	1	0	0	
5	0	0	0	0	512	1	0	1	
6	0	0	0	0	511	1	0	0	
7	0	0	0	0	514	3	0	0	
8	0	0	0	0	512	1	0	0	
9	0	0	0	0	512	1	0	0	
10	0	0	0	0	511	1	0	0	
11	0	0	0	0	511	0	0	0	
12	0	0	0	0	511	1	0	0	
13	0	0	0	0	509	1	0	1	
14	0	0	0	0	508	1	0	0	
15	0	0	0	0	509	3	0	0	
0	0	0	0	0	512	1	0	0	
1	0	0	0	0	514	1	0	0	
2	0	0	0	0	515	1	0	0	
3	0	0	0	0	512	0	0	0	
4	0	0	0	0	512	1	0	0	
5	0	0	0	0	510	1	0	1	
6	0	0	0	0	511	1	0	0	
7	0	0	0	0	511	3	0	0	
8	0	0	0	0	512	1	0	0	
9	0	0	0	0	511	1	0	0	
10	0	0	0	0	509	1	0	0	
11	0	0	0	0	511	0	0	0	
12	0	0	0	0	511	1	0	0	
13	0	0	0	0	510	0	0	1	
14	0	0	0	0	513	1	0	0	
15	0	0	0	0	513	3	0	0	
0	0	0	0	0	514	1	0	0	
1	0	0	0	0	514	1	0	0	
2	0	0	0	0	512	1	0	0	
3	0	0	0	0	511	1	0	0	
4	0	0	0	0	512	1	0	0	
5	0	0	0	0	513	0	0	1	
6	0	0	0	0	511	1	0	0	
7	0	0	0	0	508	3	0	0	
8	0	0	0	0	511	1	0	0	
9	0	0	0	0	508	1	0	0	
10	0	0	0	0	510	1	0	0	
11	0	0	0	0	513	1	0	0	
12	0	0	0	0	511	1	0	0	
13	0	0	0	0	512	0	0	1	
14	0	0	0	0	511	1	0	0	
15	0	0	0	0	510	1	0	0	
0	0	0	0	0	510	1	0	0	
1	0	0	0	0	512	1	0	0	
2	0	0	0	0	509	1	0	0	
3	0	0	0	0	512	1	0	0	
4	0	0	0	0	512	1	0	0	
5	0	0	0	0	512	1	0	1	
6	0	0	0	0	511	1	0	0	
7	0	0	0	0	513	1	0	0	
8	0	0	0	0	513	1	0	0	
9	0	0	0	0	512	1	0	0	
10	0	0	0	0	511	1	0	0	
11	0	0	0	0	510	0	0	0	
12	0	0	0	0	508	1	0	0	
13	0	0	0	0	510	1	0	1	
14	0	0	0	0	506	1	0	0	
15	0	0	0	0	511	1	0	0	
0	0	0	0	0	511	1	0	0	
1	0	0	0	0	512	1	0	0	
2	0	0	0	0	511	1	0	0	
3	0	0	0	0	516	1	0	0	
4	0	0	0	0	513	1	0	0	
5	0	0	0	0	513	0	0	1	
6	0	0	0	0	512	1	0	0	
7	0	0	0	0	512	3	0	0	
8	0	0	0	0	512	1	0	0	
9	0	0	0	0	511	1	0	0	
10	0	0	0	0	509	1	0	0	
11	0	0	0	0	511	1	0	0	
12	0	0	0	0	510	1	0	0	
13	0	0	0	0	507	0	0	1	
14	0	0	0	0	507	1	0	0	
15	0	0	0	0	507	3	0	0	
0	0	0	0	0	509	1	0	0	
1	0	0	0	0	510	1	0	0	
2	0	0	0	0	513	1	0	0	
3	0	0	0	0	515	1	0	0	
4	0	0	0	0	518	1	0	0	
5	0	0	0	0	516	0	0	1	
6	0	0	0	0	513	1	0	0	
7	0	0	0	0	512	3	0	0	
8	0	0	0	0	511	1	0	0	
9	0	0	0	0	509	1	0	0	
10	0	0	0	0	510	1	0	0	
11	0	0	0	0	509	0	0	0	
12	0	0	0	0	512	1	0	0	
13	0	0	0	0	510	1	0	1	
14	0	0	0	0	510	1	0	0	
15	0	0	0	0	511	3	0	0	
0	0	0	0	0	510	1	0	0	
1	0	0	0	0	510	1	0	0	
2	0	0	0	0	510	1	0	0	
3	0	0	0	0	511	0	0	0	
4	0	0	0	0	511	1	0	0	
5	0	0	0	0	512	1	0	1	
6	0	0	0	0	512	1	0	0	
7	0	0	0	0	511	3	0	0	
8	0	0	0	0	514	1	0	0	
9	0	0	0	0	511	1	0	0	
10	0	0	0	0	511	1	0	0	
11	0	0	0	0	515	0	0	0	
12	0	0	0	0	513	1	0	0	
13	0	0	0	0	511	1	0	1	
14	0	0	0	0	508	1	0	0	
15	0	0	0	0	511	3	0	0	
0	0	0	0	0	512	1	0	0	
1	0	0	0	0	511	1	0	0	
2	0	0	0	0	511	0	0	0	
3	0	0	0	0	510	1	0	0	
4	0	0	0	0	510	1	0	0	
5	0	0	0	0	512	1	0	1	
6	0	0	0	0	512	1	0	0	
7	0	0	0	0	513	3	0	0	
8	0	0	0	0	513	1	0	0	
9	0	0	0	0	510	1	0	0	
10	0	0	0	0	511	0	0	0	
11	0	0	0	0	511	1	0	0	
12	0	0	0	0	511	1	0	0	
13	0	0	0	0	513	1	0	1	
14	0	0	0	0	513	1	0	0	
15	0	0	0	0	511	3	0	0	
0	0	0	0	0	511	1	0	0	
1	0	0	0	0	510	1	0	0	
2	0	0	0	0	510	0	0	0	
3	0	0	0	0	509	1	0	0	
4	0	0	0	0	511	1	0	0	
5	0	0	0	0	512	1	0	1	
6	0	0	0	0	512	1	0	0	
7	0	0	0	0	511	3	0	0	
8	0	0	0	0	510	0	0	0	
9	0	0	0	0	513	1	0	0	
10	0	0	0	0	514	1	0	0	
11	0	0	0	0	512	0	0	0	
12	0	0	0	0	512	1	0	0	
13	0	0	0	0	511	1	0	1	
14	0	0	0	0	510	1	0	0	
15	0	0	0	0	509	3	0	0	
0	0	0	0	0	511	1	0	0	
1	0	0	0	0	511	1	0	0	
2	0	0	0	0	510	1	0	0	
3	0	0	0	0	513	0	0	0	
4	0	0	0	0	510	1	0	0	
5	0	0	0	0	511	1	0	1	
6	0	0	0	0	513	1	0	0	
7	0	0	0	0	512	3	0	0	
8	0	0	0	0	512	0	0	0	
9	0	0	0	0	511	1	0	0	
10	0	0	0	0	510	1	0	0	
11	0	0	0	0	511	1	0	0	
12	0	0	0	0	511	1	0	0	
13	0	0	0	0	515	1	0	1	
14	0	0	0	0	513	1	0	0	
15	0	0	0	0	511	1	0	0	
0	0	0	0	0	512	1	0	0	
1	0	0	0	0	510	1	0	0	
2	0	0	0	0	510	1	0	0	
3	0	0	0	0	512	1	0	0	
4	0	0	0	0	510	1	0	0	
5	0	0	0	0	510	1	0	1	
6	0	0	0	0	511	1	0	0	
7	0	0	0	0	512	1	0	0	
8	0	0	0	0	509	1	0	0	
9	0	0	0	0	512	1	0	0	
10	0	0	0	0	511	1	0	0	
11	0	0	0	0	510	1	0	0	
12	0	0	0	0	513	1	0	0	
13	0	0	0	0	512	1	0	1	
14	0	0	0	0	511	1	0	0	
15	0	0	0	0	511	1	0	0	
0	0	0	0	0	510	1	0	0	
1	0	0	0	0	509	1	0	0	
2	0	0	0	0	512	1	0	0	
3	0	0	0	0	511	0	0	0	
4	0	0	0	0	512	1	0	0	
5	0	0	0	0	512	1	0	1	
6	0	0	0	0	509	1	0	0	
7	0	0	0	0	512	3	0	0	
8	0	0	0	0	514	0	0	0	
9	0	0	0	0	512	1	0	0	
10	0	0	0	0	512	1	0	0	
11	0	0	0	0	513	1	0	0	
12	0	0	0	0	511	1	0	0	
13	0	0	0	0	510	1	0	1	
14	0	0	0	0	512	1	0	0	
15	0	0	0	0	512	3	0	0	
0	0	0	0	0	512	0	0	0	
1	0	0	0	0	510	1	0	0	
2	0	0	0	0	511	1	0	0	
3	0	0	0	0	509	0	0	0	
4	0	0	0	0	511	1	0	0	
5	0	0	0	0	510	1	0	1	
6	0	0	0	0	512	1	0	0	
7	0	0	0	0	512	3	0	0	
8	0	0	0	0	512	1	0	0	
9	0	0	0	0	512	1	0	0	
10	0	0	0	0	512	0	0	0	
11	0	0	0	0	511	1	0	0	
12	0	0	0	0	510	1	0	0	
13	0	0	0	0	511	1	0	1	
14	0	0	0	0	512	1	0	0	
15	0	0	0	0	512	3	0	0	
0	0	0	0	0	512	1	0	0	
1	0	0	0	0	510	1	0	0	
2	0	0	0	0	511	0	0	0	
3	0	0	0	0	511	0	0	0	
4	0	0	0	0	512	1	0	0	
5	0	0	0	0	510	1	0	1	
6	0	0	0	0	511	1	0	0	
7	0	0	0	0	511	3	0	0	
8	0	0	0	0	512	1	0	0	
9	0	0	0	0	512	1	0	0	
10	0	0	0	0	513	0	0	0	
11	0	0	0	0	512	0	0	0	
12	0	0	0	0	511	1	0	0	
13	0	0	0	0	511	1	0	1	
14	0	0	0	0	512	1	0	0	
15	0	0	0	0	511	3	0	0	
0	0	0	0	0	511	1	0	0	
1	0	0	0	0	509	1	0	0	
2	0	0	0	0	510	1	0	0	
3	0	0	0	0	512	0	0	0	
4	0	0	0	0	511	1	0	0	
5	0	0	0	0	511	1	0	1	
6	0	0	0	0	511	1	0	0	
7	0	0	0	0	511	3	0	0	
8	0	0	0	0	512	1	0	0	
9	0	0	0	0	513	1	0	0	
10	0	0	0	0	511	1	0	0	
11	0	0	0	0	513	0	0	0	
12	0	0	0	0	512	1	0	0	
13	0	0	0	0	512	1	0	1	
14	0	0	0	0	510	1	0	0	
15	0	0	0	0	511	3	0	0	
0	0	0	0	0	512	1	0	0	
1	0	0	0	0	513	1	0	0	
2	0	0	0	0	510	1	0	0	
3	0	0	0	0	509	0	0	0	
4	0	0	0	0	509	1	0	0	
5	0	0	0	0	510	0	0	1	
6	0	0	0	0	510	1	0	0	
7	0	0	0	0	510	3	0	0	
8	0	0	0	0	513	1	0	0	
9	0	0	0	0	513	1	0	0	
10	0	0	0	0	511	1	0	0	
11	0	0	0	0	512	1	0	0	
12	0	0	0	0	512	1	0	0	
13	0	0	0	0	513	0	0	1	
14	0	0	0	0	511	1	0	0	
15	0	0	0	0	512	3	0	0	
0	0	0	0	0	513	1	0	0	
1	0	0	0	0	512	1	0	0	
2	0	0	0	0	510	1	0	0	
3	0	0	0	0	510	0	0	0	
4	0	0	0	0	508	1	0	0	
5	0	0	0	0	512	0	0	1	
6	0	0	0	0	512	1	0	0	
7	0	0	0	0	511	3	0	0	
8	0	0	0	0	510	1	0	0	
9	0	0	0	0	512	1	0	0	
10	0	0	0	0	510	1	0	0	
11	0	0	0	0	513	0	0	0	
12	0	0	0	0	513	1	0	0	
13	0	0	0	0	513	1	0	1	
14	0	0	0	0	511	1	0	0	
15	0	0	0	0	511	1	0	0	
0	0	0	0	0	512	1	0	0	
1	0	0	0	0	512	1	0	0	
2	0	0	0	0	511	1	0	0	
3	0	0	0	0	510	0	0	0	
4	0	0	0	0	510	1	0	0	
5	0	0	0	0	511	1	0	1	
6	0	0	0	0	511	1	0	0	
7	0	0	0	0	511	1	0	0	
8	0	0	0	0	511	1	0	0	
9	0	0	0	0	511	1	0	0	
10	0	0	0	0	512	1	0	0	
11	0	0	0	0	512	1	0	0	
12	0	0	0	0	512	1	0	0	
13	0	0	0	0	514	1	0	1	
14	0	0	0	0	513	1	0	0	
15	0	0	0	0	512	1	0	0	
0	0	0	0	0	512	1	0	0	
1	0	0	0	0	511	1	0	0	
2	0	0	0	0	510	1	0	0	
3	0	0	0	0	510	1	0	0	
4	0	0	0	0	511	1	0	0	
5	0	0	0	0	510	0	0	1	
6	0	0	0	0	511	1	0	0	
7	0	0	0	0	509	3	0	0	
8	0	0	0	0	512	1	0	0	
9	0	0	0	0	511	1	0	0	
10	0	0	0	0	511	1	0	0	
11	0	0	0	0	512	1	0	0	
12	0	0	0	0	511	1	0	0	
13	0	0	0	0	512	0	0	1	
14	0	0	0	0	511	1	0	0	
15	0	0	0	0	511	3	0	0	
0	0	0	0	0	512	1	0	0	
1	0	0	0	0	510	1	0	0	
2	0	0	0	0	511	1	0	0	
3	0	0	0	0	509	1	0	0	
4	0	0	0	0	511	1	0	0	
5	0	0	0	0	513	0	0	1	
6	0	0	0	0	512	1	0	0	
7	0	0	0	0	513	3	0	0	
8	0	0	0	0	510	1	0	0	
9	0	0	0	0	512	1	0	0	
10	0	0	0	0	511	1	0	0	
11	0	0	0	0	511	0	0	0	
12	0	0	0	0	510	1	0	0	
13	0	0	0	0	512	1	0	1	
14	0	0	0	0	512	1	0	0	
15	0	0	0	0	512	3	0	0	
0	0	0	0	0	511	1	0	0	
1	0	0	0	0	510	1	0	0	
2	0	0	0	0	510	1	0	0	
3	0	0	0	0	510	0	0	0	
4	0	0	0	0	513	1	0	0	
5	0	0	0	0	512	1	0	1	
6	0	0	0	0	512	1	0	0	
7	0	0	0	0	510	3	0	0	
8	0	0	0	0	513	1	0	0	
9	0	0	0	0	515	1	0	0	
10	0	0	0	0	512	1	0	0	
11	0	0	0	0	513	0	0	0	
12	0	0	0	0	512	1	0	0	
13	0	0	0	0	510	1	0	1	
14	0	0	0	0	512	1	0	0	
15	0	0	0	0	512	3	0	0	
0	0	0	0	0	513	1	0	0	
1	0	0	0	0	513	1	0	0	
2	0	0	0	0	509	0	0	0	
3	0	0	0	0	510	1	0	0	
4	0	0	0	0	509	1	0	0	
5	0	0	0	0	512	1	0	1	
6	0	0	0	0	510	1	0	0	
7	0	0	0	0	511	3	0	0	
8	0	0	0	0	510	1	0	0	
9	0	0	0	0	511	1	0	0	
10	0	0	0	0	510	0	0	0	
11	0	0	0	0	511	0	0	0	
12	0	0	0	0	510	1	0	0	
13	0	0	0	0	512	1	0	1	
14	0	0	0	0	512	1	0	0	
15	0	0	0	0	511	3	0	0	
0	0	0	0	0	512	1	0	0	
1	0	0	0	0	510	1	0	0	
2	0	0	0	0	513	1	0	0	
3	0	0	0	0	512	1	0	0	
4	0	0	0	0	510	1	0	0	
5	0	0	0	0	510	1	0	1	
6	0	0	0	0	509	1	0	0	
7	0	0	0	0	511	3	0	0	
8	0	0	0	0	511	0	0	0	
9	0	0	0	0	513	1	0	0	
10	0	0	0	0	511	1	0	0	
11	0	0	0	0	510	1	0	0	
12	0	0	0	0	511	1	0	0	
13	0	0	0	0	512	1	0	1	
14	0	0	0	0	511	1	0	0	
15	0	0	0	0	512	3	0	0	
0	0	0	0	0	511	1	0	0	
1	0	0	0	0	511	1	0	0	
2	0	0	0	0	513	1	0	0	
3	0	0	0	0	510	0	0	0	
4	0	0	0	0	512	1	0	0	
5	0	0	0	0	512	1	0	1	
6	0	0	0	0	510	1	0	0	
7	0	0	0	0	512	1	0	0	
8	0	0	0	0	510	1	0	0	
9	0	0	0	0	509	1	0	0	
10	0	0	0	0	510	1	0	0	
11	0	0	0	0	512	1	0	0	
12	0	0	0	0	510	1	0	0	
13	0	0	0	0	511	1	0	1	
14	0	0	0	0	512	1	0	0	
15	0	0	0	0	514	2	0	0	
0	0	0	0	0	512	1	0	0	
1	0	0	0	0	512	1	0	0	
2	0	0	0	0	511	1	0	0	
3	0	0	0	0	511	1	0	0	
4	0	0	0	0	511	1	0	0	
5	0	0	0	0	510	1	0	1	
6	0	0	0	0	511	1	0	0	
7	0	0	0	0	511	1	0	0	
8	0	0	0	0	511	1	0	0	
9	0	0	0	0	512	1	0	0	
10	0	0	0	0	510	1	0	0	
11	0	0	0	0	509	0	0	0	
12	0	0	0	0	509	1	0	0	
13	0	0	0	0	512	1	0	1	
14	0	0	0	0	509	1	0	0	
15	0	0	0	0	512	3	0	0	
0	0	0	0	0	514	1	0	0	
1	0	0	0	0	513	1	0	0	
2	0	0	0	0	512	1	0	0	
3	0	0	0	0	511	1	0	0	
4	0	0	0	0	511	1	0	0	
5	0	0	0	0	511	1	0	1	
6	0	0	0	0	511	1	0	0	
7	0	0	0	0	511	3	0	0	
8	0	0	0	0	511	1	0	0	
9	0	0	0	0	511	1	0	0	
10	0	0	0	0	511	1	0	0	
11	0	0	0	0	509	1	0	0	
12	0	0	0	0	509	1	0	0	
13	0	0	0	0	510	1	0	1	
14	0	0	0	0	510	1	0	0	
15	0	0	0	0	511	3	0	0	
0	0	0	0	0	513	0	0	0	
1	0	0	0	0	510	1	0	0	
2	0	0	0	0	511	1	0	0	
3	0	0	0	0	510	1	0	0	
4	0	0	0	0	512	1	0	0	
5	0	0	0	0	511	1	0	1	
6	0	0	0	0	514	1	0	0	
7	0	0	0	0	515	3	0	0	
8	0	0	0	0	512	1	0	0	
9	0	0	0	0	509	1	0	0	
10	0	0	0	0	508	0	0	0	
11	0	0	0	0	508	0	0	0	
12	0	0	0	0	509	1	0	0	
13	0	0	0	0	511	1	0	1	
14	0	0	0	0	512	1	0	0	
15	0	0	0	0	510	3	0	0	
0	0	0	0	0	514	1	0	0	
1	0	0	0	0	512	1	0	0	
2	0	0	0	0	511	0	0	0	
3	0	0	0	0	511	1	0	0	
4	0	0	0	0	512	1	0	0	
5	0	0	0	0	511	1	0	1	
6	0	0	0	0	512	1	0	0	
7	0	0	0	0	513	3	0	0	
8	0	0	0	0	512	1	0	0	
9	0	0	0	0	513	1	0	0	
10	0	0	0	0	511	1	0	0	
11	0	0	0	0	510	0	0	0	
12	0	0	0	0	509	1	0	0	
13	0	0	0	0	511	1	0	1	
14	0	0	0	0	512	1	0	0	
15	0	0	0	0	513	3	0	0	
0	0	0	0	0	511	1	0	0	
1	0	0	0	0	511	1	0	0	
2	0	0	0	0	511	1	0	0	
3	0	0	0	0	513	0	0	0	
4	0	0	0	0	511	1	0	0	
5	0	0	0	0	511	1	0	1	
6	0	0	0	0	512	1	0	0	
7	0	0	0	0	511	3	0	0	
8	0	0	0	0	511	1	0	0	
9	0	0	0	0	512	1	0	0	
10	0	0	0	0	508	1	0	0	
11	0	0	0	0	508	0	0	0	
12	0	0	0	0	508	1	0	0	
13	0	0	0	0	511	1	0	1	
14	0	0	0	0	510	1	0	0	
15	0	0	0	0	512	3	0	0	
0	0	0	0	0	512	1	0	0	
1	0	0	0	0	511	1	0	0	
2	0	0	0	0	512	1	0	0	
3	0	0	0	0	511	1	0	0	
4	0	0	0	0	513	1	0	0	
5	0	0	0	0	512	0	0	1	
6	0	0	0	0	512	1	0	0	
7	0	0	0	0	511	3	0	0	
8	0	0	0	0	512	1	0	0	
9	0	0	0	0	510	1	0	0	
10	0	0	0	0	511	1	0	0	
11	0	0	0	0	509	0	0	0	
12	0	0	0	0	512	1	0	0	
13	0	0	0	0	510	0	0	1	
14	0	0	0	0	509	1	0	0	
15	0	0	0	0	512	3	0	0	
0	0	0	0	0	515	1	0	0	
1	0	0	0	0	514	1	0	0	
2	0	0	0	0	514	1	0	0	
3	0	0	0	0	512	1	0	0	
4	0	0	0	0	511	1	0	0	
5	0	0	0	0	512	1	0	1	
6	0	0	0	0	512	1	0	0	
7	0	0	0	0	513	1	0	0	
8	0	0	0	0	508	1	0	0	
9	0	0	0	0	512	1	0	0	
10	0	0	0	0	514	1	0	0	
11	0	0	0	0	511	1	0	0	
12	0	0	0	0	510	1	0	0	
13	0	0	0	0	509	1	0	1	
14	0	0	0	0	510	1	0	0	
15	0	0	0	0	509	1	0	0	
0	0	0	0	0	511	1	0	0	
1	0	0	0	0	512	1	0	0	
2	0	0	0	0	511	1	0	0	
3	0	0	0	0	511	1	0	0	
4	0	0	0	0	512	1	0	0	
5	0	0	0	0	512	1	0	1	
6	0	0	0	0	513	1	0	0	
7	0	0	0	0	512	1	0	0	
8	0	0	0	0	513	1	0	0	
9	0	0	0	0	511	1	0	0	
10	0	0	0	0	511	1	0	0	
11	0	0	0	0	512	1	0	0	
12	0	0	0	0	511	1	0	0	
13	0	0	0	0	511	0	0	1	
14	0	0	0	0	509	1	0	0	
15	0	0	0	0	509	3	0	0	
0	0	0	0	0	510	1	0	0	
1	0	0	0	0	511	1	0	0	
2	0	0	0	0	511	1	0	0	
3	0	0	0	0	513	1	0	0	
4	0	0	0	0	514	1	0	0	
5	0	0	0	0	514	0	0	1	
6	0	0	0	0	511	1	0	0	
7	0	0	0	0	512	3	0	0	
8	0	0	0	0	510	1	0	0	
9	0	0	0	0	510	1	0	0	
10	0	0	0	0	512	1	0	0	
11	0	0	0	0	512	1	0	0	
12	0	0	0	0	512	1	0	0	
13	0	0	0	0	512	0	0	1	
14	0	0	0	0	510	1	0	0	
15	0	0	0	0	509	3	0	0	
0	0	0	0	0	509	1	0	0	
1	0	0	0	0	511	1	0	0	
2	0	0	0	0	511	1	0	0	
3	0	0	0	0	511	0	0	0	
4	0	0	0	0	513	1	0	0	
5	0	0	0	0	510	1	0	1	
6	0	0	0	0	512	1	0	0	
7	0	0	0	0	512	3	0	0	
8	0	0	0	0	511	1	0	0	
9	0	0	0	0	512	1	0	0	
10	0	0	0	0	511	1	0	0	
11	0	0	0	0	512	0	0	0	
12	0	0	0	0	510	1	0	0	
13	0	0	0	0	511	1	0	1	
14	0	0	0	0	510	1	0	0	
15	0	0	0	0	511	3	0	0	
0	0	0	0	0	511	1	0	0	
1	0	0	0	0	509	1	0	0	
2	0	0	0	0	511	1	0	0	
3	0	0	0	0	512	0	0	0	
4	0	0	0	0	512	1	0	0	
5	0	0	0	0	513	1	0	1	
6	0	0	0	0	512	1	0	0	
7	0	0	0	0	513	3	0	0	
8	0	0	0	0	512	1	0	0	
9	0	0	0	0	510	1	0	0	
10	0	0	0	0	513	0	0	0	
11	0	0	0	0	510	1	0	0	
12	0	0	0	0	510	1	0	0	
13	0	0	0	0	511	1	0	1	
14	0	0	0	0	512	1	0	0	
15	0	0	0	0	511	3	0	0	
0	0	0	0	0	512	1	0	0	
1	0	0	0	0	510	1	0	0	
2	0	0	0	0	511	0	0	0	
3	0	0	0	0	512	1	0	0	
4	0	0	0	0	511	1	0	0	
5	0	0	0	0	512	1	0	1	
6	0	0	0	0	514	1	0	0	
7	0	0	0	0	512	3	0	0	
8	0	0	0	0	512	1	0	0	
9	0	0	0	0	512	1	0	0	
10	0	0	0	0	512	0	0	0	
11	0	0	0	0	512	1	0	0	
12	0	0	0	0	511	1	0	0	
13	0	0	0	0	510	1	0	1	
14	0	0	0	0	511	1	0	0	
15	0	0	0	0	510	3	0	0	
0	0	0	0	0	510	1	0	0	
1	0	0	0	0	510	1	0	0	
2	0	0	0	0	512	1	0	0	
3	0	0	0	0	512	1	0	0	
4	0	0	0	0	511	1	0	0	
5	0	0	0	0	511	1	0	1	
6	0	0	0	0	511	1	0	0	
7	0	0	0	0	510	3	0	0	
8	0	0	0	0	511	0	0	0	
9	0	0	0	0	512	1	0	0	
10	0	0	0	0	513	1	0	0	
11	0	0	0	0	512	1	0	0	
12	0	0	0	0	513	1	0	0	
13	0	0	0	0	512	1	0	1	
14	0	0	0	0	512	1	0	0	
15	0	0	0	0	512	3	0	0	
0	0	0	0	0	511	1	0	0	
1	0	0	0	0	511	1	0	0	
2	0	0	0	0	510	1	0	0	
3	0	0	0	0	510	0	0	0	
4	0	0	0	0	512	1	0	0	
5	0	0	0	0	509	1	0	1	
6	0	0	0	0	509	1	0	0	
7	0	0	0	0	512	1	0	0	
8	0	0	0	0	513	1	0	0	
9	0	0	0	0	512	1	0	0	
10	0	0	0	0	513	1	0	0	
11	0	0	0	0	511	1	0	0	
12	0	0	0	0	512	1	0	0	
13	0	0	0	0	510	1	0	1	
14	0	0	0	0	512	1	0	0	
15	0	0	0	0	511	1	0	0	
0	0	0	0	0	510	1	0	0	
1	0	0	0	0	510	1	0	0	
2	0	0	0	0	507	1	0	0	
3	0	0	0	0	511	1	0	0	
4	0	0	0	0	511	1	0	0	
5	0	0	0	0	512	1	0	1	
6	0	0	0	0	511	1	0	0	
7	0	0	0	0	512	3	0	0	
8	0	0	0	0	512	1	0	0	
9	0	0	0	0	514	1	0	0	
10	0	0	0	0	511	1	0	0	
11	0	0	0	0	513	0	0	0	
12	0	0	0	0	511	1	0	0	
13	0	0	0	0	511	1	0	1	
14	0	0	0	0	511	1	0	0	
15	0	0	0	0	513	3	0	0	
0	0	0	0	0	511	0	0	0	
1	0	0	0	0	513	1	0	0	
2	0	0	0	0	511	1	0	0	
3	0	0	0	0	510	0	0	0	
4	0	0	0	0	510	1	0	0	
5	0	0	0	0	512	1	0	1	
6	0	0	0	0	509	1	0	0	
7	0	0	0	0	512	3	0	0	
8	0	0	0	0	513	1	0	0	
9	0	0	0	0	513	1	0	0	
10	0	0	0	0	511	1	0	0	
11	0	0	0	0	510	0	0	0	
12	0	0	0	0	513	1	0	0	
13	0	0	0	0	512	1	0	1	
14	0	0	0	0	511	1	0	0	
15	0	0	0	0	511	3	0	0	
0	0	0	0	0	511	1	0	0	
1	0	0	0	0	510	1	0	0	
2	0	0	0	0	508	0	0	0	
3	0	0	0	0	510	1	0	0	
4	0	0	0	0	511	1	0	0	
5	0	0	0	0	512	1	0	1	
6	0	0	0	0	513	1	0	0	
7	0	0	0	0	512	3	0	0	
8	0	0	0	0	511	1	0	0	
9	0	0	0	0	512	1	0	0	
10	0	0	0	0	512	0	0	0	
11	0	0	0	0	511	1	0	0	
12	0	0	0	0	512	1	0	0	
13	0	0	0	0	512	1	0	1	
14	0	0	0	0	511	1	0	0	
15	0	0	0	0	511	3	0	0	
0	0	0	0	0	509	1	0	0	
1	0	0	0	0	510	1	0	0	
2	0	0	0	0	511	0	0	0	
3	0	0	0	0	510	0	0	0	
4	0	0	0	0	511	1	0	0	
5	0	0	0	0	511	1	0	1	
6	0	0	0	0	512	1	0	0	
7	0	0	0	0	511	3	0	0	
8	0	0	0	0	511	1	0	0	
9	0	0	0	0	511	1	0	0	
10	0	0	0	0	512	1	0	0	
11	0	0	0	0	512	0	0	0	
12	0	0	0	0	513	1	0	0	
13	0	0	0	0	514	1	0	1	
14	0	0	0	0	512	1	0	0	
15	0	0	0	0	514	3	0	0	
0	0	0	0	0	513	1	0	0	
1	0	0	0	0	511	1	0	0	
2	0	0	0	0	511	1	0	0	
3	0	0	0	0	508	0	0	0	
4	0	0	0	0	506	1	0	0	
5	0	0	0	0	506	1	0	1	
6	0	0	0	0	511	1	0	0	
7	0	0	0	0	513	3	0	0	
8	0	0	0	0	514	1	0	0	
9	0	0	0	0	512	1	0	0	
10	0	0	0	0	511	1	0	0	
11	0	0	0	0	514	1	0	0	
12	0	0	0	0	514	1	0	0	
13	0	0	0	0	513	0	0	1	
14	0	0	0	0	510	1	0	0	
15	0	0	0	0	512	3	0	0	
0	0	0	0	0	510	1	0	0	
1	0	0	0	0	509	1	0	0	
2	0	0	0	0	512	1	0	0	
3	0	0	0	0	511	0	0	0	
4	0	0	0	0	509	1	0	0	
5	0	0	0	0	508	0	0	1	
6	0	0	0	0	511	1	0	0	
7	0	0	0	0	513	3	0	0	
8	0	0	0	0	512	1	0	0	
9	0	0	0	0	510	1	0	0	
10	0	0	0	0	508	1	0	0	
11	0	0	0	0	511	1	0	0	
12	0	0	0	0	514	1	0	0	
13	0	0	0	0	511	0	0	1	
14	0	0	0	0	510	1	0	0	
15	0	0	0	0	511	1	0	0	
0	0	0	0	0	511	1	0	0	
1	0	0	0	0	511	1	0	0	
2	0	0	0	0	512	1	0	0	
3	0	0	0	0	515	0	0	0	
4	0	0	0	0	511	1	0	0	
5	0	0	0	0	511	1	0	1	
6	0	0	0	0	510	1	0	0	
7	0	0	0	0	512	1	0	0	
8	0	0	0	0	513	1	0	0	
9	0	0	0	0	511	1	0	0	
10	0	0	0	0	511	1	0	0	
11	0	0	0	0	512	0	0	0	
12	0	0	0	0	511	1	0	0	
13	0	0	0	0	515	1	0	1	
14	0	0	0	0	513	1	0	0	
15	0	0	0	0	510	1	0	0	
0	0	0	0	0	515	1	0	0	
1	0	0	0	0	516	1	0	0	
2	0	0	0	0	513	1	0	0	
3	0	0	0	0	508	1	0	0	
4	0	0	0	0	510	1	0	0	
5	0	0	0	0	510	0	0	1	
6	0	0	0	0	509	1	0	0	
7	0	0	0	0	510	3	0	0	
8	0	0	0	0	506	1	0	0	
9	0	0	0	0	508	1	0	0	
10	0	0	0	0	510	1	0	0	
11	0	0	0	0	513	1	0	0	
12	0	0	0	0	513	1	0	0	
13	0	0	0	0	515	0	0	1	
14	0	0	0	0	513	1	0	0	
15	0	0	0	0	512	3	0	0	
0	0	0	0	0	511	1	0	0	
1	0	0	0	0	511	1	0	0	
2	0	0	0	0	511	1	0	0	
3	0	0	0	0	508	0	0	0	
4	0	0	0	0	512	1	0	0	
5	0	0	0	0	513	0	0	1	
6	0	0	0	0	512	1	0	0	
7	0	0	0	0	511	3	0	0	
8	0	0	0	0	513	1	0	0	
9	0	0	0	0	513	1	0	0	
10	0	0	0	0	509	1	0	0	
11	0	0	0	0	512	0	0	0	
12	0	0	0	0	511	1	0	0	
13	0	0	0	0	512	1	0	1	
14	0	0	0	0	512	1	0	0	
15	0	0	0	0	508	3	0	0	
0	0	0	0	0	513	1	0	0	
1	0	0	0	0	515	1	0	0	
2	0	0	0	0	510	1	0	0	
3	0	0	0	0	510	0	0	0	
4	0	0	0	0	507	1	0	0	
5	0	0	0	0	508	1	0	1	
6	0	0	0	0	510	1	0	0	
7	0	0	0	0	511	3	0	0	
8	0	0	0	0	512	1	0	0	
9	0	0	0	0	511	1	0	0	
10	0	0	0	0	516	1	0	0	
11	0	0	0	0	515	0	0	0	
12	0	0	0	0	514	1	0	0	
13	0	0	0	0	509	1	0	1	
14	0	0	0	0	505	1	0	0	
15	0	0	0	0	507	3	0	0	
0	0	0	0	0	510	1	0	0	
1	0	0	0	0	510	1	0	0	
2	0	0	0	0	513	0	0	0	
3	0	0	0	0	512	1	0	0	
4	0	0	0	0	511	1	0	0	
5	0	0	0	0	512	1	0	1	
6	0	0	0	0	514	1	0	0	
7	0	0	0	0	512	3	0	0	
8	0	0	0	0	511	1	0	0	
9	0	0	0	0	511	1	0	0	
10	0	0	0	0	512	0	0	0	
11	0	0	0	0	512	1	0	0	
12	0	0	0	0	513	1	0	0	
13	0	0	0	0	509	1	0	1	
14	0	0	0	0	510	1	0	0	
15	0	0	0	0	512	3	0	0	
0	0	0	0	0	512	1	0	0	
1	0	0	0	0	512	1	0	0	
2	0	0	0	0	511	0	0	0	
3	0	0	0	0	511	0	0	0	
4	0	0	0	0	512	1	0	0	
5	0	0	0	0	511	1	0	1	
6	0	0	0	0	510	1	0	0	
7	0	0	0	0	510	3	0	0	
8	0	0	0	0	511	0	0	0	
9	0	0	0	0	512	1	0	0	
10	0	0	0	0	511	1	0	0	
11	0	0	0	0	509	1	0	0	
12	0	0	0	0	511	1	0	0	
13	0	0	0	0	510	1	0	1	
14	0	0	0	0	510	1	0	0	
15	0	0	0	0	512	3	0	0	
0	0	0	0	0	511	1	0	0	
1	0	0	0	0	513	1	0	0	
2	0	0	0	0	516	1	0	0	
3	0	0	0	0	518	1	0	0	
4	0	0	0	0	516	1	0	0	
5	0	0	0	0	510	1	0	1	
6	0	0	0	0	505	1	0	0	
7	0	0	0	0	505	3	0	0	
8	0	0	0	0	508	0	0	0	
9	0	0	0	0	510	1	0	0	
10	0	0	0	0	511	1	0	0	
11	0	0	0	0	511	0	0	0	
12	0	0	0	0	511	1	0	0	
13	0	0	0	0	511	1	0	1	
14	0	0	0	0	512	1	0	0	
15	0	0	0	0	517	1	0	0	
0	0	0	0	0	516	1	0	0	
1	0	0	0	0	511	1	0	0	
2	0	0	0	0	508	1	0	0	
3	0	0	0	0	511	0	0	0	
4	0	0	0	0	517	1	0	0	
5	0	0	0	0	527	1	0	1	
6	0	0	0	0	515	1	0	0	
7	0	0	0	0	497	1	0	0	
8	0	0	0	0	496	1	0	0	
9	0	0	0	0	507	1	0	0	
10	0	0	0	0	508	1	0	0	
11	0	0	0	0	509	1	0	0	
12	0	0	0	0	511	1	0	0	
13	0	0	0	0	511	1	0	1	
14	0	0	0	0	509	1	0	0	
15	0	0	0	0	510	1	0	0	
0	0	0	0	0	511	1	0	0	
1	0	0	0	0	516	1	0	0	
2	0	0	0	0	514	1	0	0	
3	0	0	0	0	514	1	0	0	
4	0	0	0	0	515	1	0	0	
5	0	0	0	0	514	1	0	1	
6	0	0	0	0	512	1	0	0	
7	0	0	0	0	513	3	0	0	
8	0	0	0	0	513	1	0	0	
9	0	0	0	0	511	1	0	0	
10	0	0	0	0	508	1	0	0	
11	0	0	0	0	512	1	0	0	
12	0	0	0	0	511	1	0	0	
13	0	0	0	0	511	1	0	1	
14	0	0	0	0	510	1	0	0	
15	0	0	0	0	512	3	0	0	
0	0	0	0	0	512	0	0	0	
1	0	0	0	0	510	1	0	0	
2	0	0	0	0	508	1	0	0	
3	0	0	0	0	510	0	0	0	
4	0	0	0	0	508	1	0	0	
5	0	0	0	0	511	1	0	1	
6	0	0	0	0	511	1	0	0	
7	0	0	0	0	513	3	0	0	
8	0	0	0	0	514	1	0	0	
9	0	0	0	0	511	1	0	0	
10	0	0	0	0	511	0	0	0	
11	0	0	0	0	509	1	0	0	
12	0	0	0	0	510	1	0	0	
13	0	0	0	0	512	1	0	1	
14	0	0	0	0	513	1	0	0	
15	0	0	0	0	512	3	0	0	
0	0	0	0	0	515	1	0	0	
1	0	0	0	0	512	1	0	0	
2	0	0	0	0	511	0	0	0	
3	0	0	0	0	513	1	0	0	
4	0	0	0	0	508	1	0	0	
5	0	0	0	0	511	1	0	1	
6	0	0	0	0	512	1	0	0	
7	0	0	0	0	511	3	0	0	
8	0	0	0	0	511	1	0	0	
9	0	0	0	0	513	1	0	0	
10	0	0	0	0	511	0	0	0	
11	0	0	0	0	512	0	0	0	
12	0	0	0	0	508	1	0	0	
13	0	0	0	0	511	1	0	1	
14	0	0	0	0	510	1	0	0	
15	0	0	0	0	511	3	0	0	
0	0	0	0	0	514	1	0	0	
1	0	0	0	0	512	1	0	0	
2	0	0	0	0	512	1	0	0	
3	0	0	0	0	511	0	0	0	
4	0	0	0	0	508	1	0	0	
5	0	0	0	0	511	1	0	1	
6	0	0	0	0	511	1	0	0	
7	0	0	0	0	513	3	0	0	
8	0	0	0	0	511	1	0	0	
9	0	0	0	0	511	1	0	0	
10	0	0	0	0	513	1	0	0	
11	0	0	0	0	512	0	0	0	
12	0	0	0	0	511	1	0	0	
13	0	0	0	0	510	1	0	1	
14	0	0	0	0	510	1	0	0	
15	0	0	0	0	511	3	0	0	
0	0	0	0	0	511	1	0	0	
1	0	0	0	0	510	1	0	0	
2	0	0	0	0	511	1	0	0	
3	0	0	0	0	511	0	0	0	
4	0	0	0	0	510	1	0	0	
5	0	0	0	0	511	0	0	1	
6	0	0	0	0	513	1	0	0	
7	0	0	0	0	514	3	0	0	
8	0	0	0	0	512	1	0	0	
9	0	0	0	0	511	1	0	0	
10	0	0	0	0	512	1	0	0	
11	0	0	0	0	513	1	0	0	
12	0	0	0	0	511	1	0	0	
13	0	0	0	0	512	0	0	1	
14	0	0	0	0	510	1	0	0	
15	0	0	0	0	511	3	0	0	
0	0	0	0	0	509	1	0	0	
1	0	0	0	0	512	1	0	0	
2	0	0	0	0	510	1	0	0	
3	0	0	0	0	511	1	0	0	
4	0	0	0	0	511	1	0	0	
5	0	0	0	0	511	0	0	1	
6	0	0	0	0	512	1	0	0	
7	0	0	0	0	512	3	0	0	
8	0	0	0	0	513	1	0	0	
9	0	0	0	0	511	1	0	0	
10	0	0	0	0	511	1	0	0	
11	0	0	0	0	510	0	0	0	
12	0	0	0	0	512	1	0	0	
13	0	0	0	0	510	1	0	1	
14	0	0	0	0	508	1	0	0	
15	0	0	0	0	509	1	0	0	
0	0	0	0	0	510	1	0	0	
1	0	0	0	0	511	1	0	0	
2	0	0	0	0	511	1	0	0	
3	0	0	0	0	513	1	0	0	
4	0	0	0	0	512	1	0	0	
5	0	0	0	0	511	1	0	1	
6	0	0	0	0	511	1	0	0	
7	0	0	0	0	513	1	0	0	
8	0	0	0	0	509	1	0	0	
9	0	0	0	0	513	1	0	0	
10	0	0	0	0	511	1	0	0	
11	0	0	0	0	513	1	0	0	
12	0	0	0	0	513	1	0	0	
13	0	0	0	0	510	1	0	1	
14	0	0	0	0	511	1	0	0	
15	0	0	0	0	508	3	0	0	
0	0	0	0	0	514	1	0	0	
1	0	0	0	0	511	1	0	0	
2	0	0	0	0	512	1	0	0	
3	0	0	0	0	512	0	0	0	
4	0	0	0	0	510	1	0	0	
5	0	0	0	0	511	0	0	1	
6	0	0	0	0	512	1	0	0	
7	0	0	0	0	512	3	0	0	
8	0	0	0	0	514	1	0	0	
9	0	0	0	0	512	1	0	0	
10	0	0	0	0	511	1	0	0	
11	0	0	0	0	511	1	0	0	
12	0	0	0	0	511	1	0	0	
13	0	0	0	0	512	0	0	1	
14	0	0	0	0	510	1	0	0	
15	0	0	0	0	511	3	0	0	
0	0	0	0	0	511	1	0	0	
1	0	0	0	0	511	1	0	0	
2	0	0	0	0	514	1	0	0	
3	0	0	0	0	512	1	0	0	
4	0	0	0	0	510	1	0	0	
5	0	0	0	0	511	1	0	1	
6	0	0	0	0	513	1	0	0	
7	0	0	0	0	512	3	0	0	
8	0	0	0	0	512	1	0	0	
9	0	0	0	0	512	1	0	0	
10	0	0	0	0	513	1	0	0	
11	0	0	0	0	512	0	0	0	
12	0	0	0	0	511	1	0	0	
13	0	0	0	0	511	1	0	1	
14	0	0	0	0	512	1	0	0	
15	0	0	0	0	509	3	0	0	
0	0	0	0	0	508	1	0	0	
1	0	0	0	0	510	1	0	0	
2	0	0	0	0	510	1	0	0	
3	0	0	0	0	510	0	0	0	
4	0	0	0	0	510	1	0	0	
5	0	0	0	0	514	1	0	1	
6	0	0	0	0	509	1	0	0	
7	0	0	0	0	510	3	0	0	
8	0	0	0	0	514	1	0	0	
9	0	0	0	0	511	1	0	0	
10	0	0	0	0	511	1	0	0	
11	0	0	0	0	511	1	0	0	
12	0	0	0	0	513	1	0	0	
13	0	0	0	0	510	1	0	1	
14	0	0	0	0	512	1	0	0	
15	0	0	0	0	511	3	0	0	
0	0	0	0	0	510	1	0	0	
1	0	0	0	0	511	1	0	0	
2	0	0	0	0	512	0	0	0	
3	0	0	0	0	512	1	0	0	
4	0	0	0	0	511	1	0	0	
5	0	0	0	0	511	1	0	1	
6	0	0	0	0	512	1	0	0	
7	0	0	0	0	509	3	0	0	
8	0	0	0	0	511	1	0	0	
9	0	0	0	0	512	1	0	0	
10	0	0	0	0	511	0	0	0	
11	0	0	0	0	512	1	0	0	
12	0	0	0	0	511	1	0	0	
13	0	0	0	0	511	1	0	1	
14	0	0	0	0	510	1	0	0	
15	0	0	0	0	511	3	0	0	
0	0	0	0	0	511	1	0	0	
1	0	0	0	0	510	1	0	0	
2	0	0	0	0	511	1	0	0	
3	0	0	0	0	511	0	0	0	
4	0	0	0	0	510	1	0	0	
5	0	0	0	0	511	1	0	1	
6	0	0	0	0	511	1	0	0	
7	0	0	0	0	511	3	0	0	
8	0	0	0	0	515	1	0	0	
9	0	0	0	0	512	1	0	0	
10	0	0	0	0	515	1	0	0	
11	0	0	0	0	514	1	0	0	
12	0	0	0	0	511	1	0	0	
13	0	0	0	0	512	1	0	1	
14	0	0	0	0	510	1	0	0	
15	0	0	0	0	511	3	0	0	
0	0	0	0	0	512	0	0	0	
1	0	0	0	0	512	1	0	0	
2	0	0	0	0	509	1	0	0	
3	0	0	0	0	511	1	0	0	
4	0	0	0	0	509	1	0	0	
5	0	0	0	0	509	1	0	1	
6	0	0	0	0	511	1	0	0	
7	0	0	0	0	510	1	0	0	
8	0	0	0	0	510	1	0	0	
9	0	0	0	0	511	1	0	0	
10	0	0	0	0	512	1	0	0	
11	0	0	0	0	510	1	0	0	
12	0	0	0	0	511	1	0	0	
13	0	0	0	0	511	1	0	1	
14	0	0	0	0	513	1	0	0	
15	0	0	0	0	512	1	0	0	
0	0	0	0	0	512	1	0	0	
1	0	0	0	0	511	1	0	0	
2	0	0	0	0	510	1	0	0	
3	0	0	0	0	508	1	0	0	
4	0	0	0	0	510	1	0	0	
5	0	0	0	0	511	1	0	1	
6	0	0	0	0	511	1	0	0	
7	0	0	0	0	511	1	0	0	
8	0	0	0	0	512	1	0	0	
9	0	0	0	0	511	1	0	0	
10	0	0	0	0	513	1	0	0	
11	0	0	0	0	513	1	0	0	
12	0	0	0	0	512	1	0	0	
13	0	0	0	0	510	1	0	1	
14	0	0	0	0	510	1	0	0	
15	0	0	0	0	513	3	0	0	
0	0	0	0	0	511	1	0	0	
1	0	0	0	0	511	1	0	0	
2	0	0	0	0	513	1	0	0	
3	0	0	0	0	510	0	0	0	
4	0	0	0	0	511	1	0	0	
5	0	0	0	0	510	1	0	1	
6	0	0	0	0	511	1	0	0	
7	0	0	0	0	511	3	0	0	
8	0	0	0	0	513	1	0	0	
9	0	0	0	0	509	1	0	0	
10	0	0	0	0	512	1	0	0	
11	0	0	0	0	513	1	0	0	
12	0	0	0	0	511	1	0	0	
13	0	0	0	0	514	1	0	1	
14	0	0	0	0	514	1	0	0	
15	0	0	0	0	512	3	0	0	
0	0	0	0	0	511	1	0	0	
1	0	0	0	0	508	1	0	0	
2	0	0	0	0	511	0	0	0	
3	0	0	0	0	511	1	0	0	
4	0	0	0	0	511	1	0	0	
5	0	0	0	0	511	1	0	1	
6	0	0	0	0	511	1	0	0	
7	0	0	0	0	511	3	0	0	
8	0	0	0	0	511	1	0	0	
9	0	0	0	0	512	1	0	0	
10	0	0	0	0	512	0	0	0	
11	0	0	0	0	511	1	0	0	
12	0	0	0	0	512	1	0	0	
13	0	0	0	0	516	1	0	1	
14	0	0	0	0	512	1	0	0	
15	0	0	0	0	513	3	0	0	
0	0	0	0	0	512	1	0	0	
1	0	0	0	0	511	1	0	0	
2	0	0	0	0	511	0	0	0	
3	0	0	0	0	512	1	0	0	
4	0	0	0	0	510	1	0	0	
5	0	0	0	0	510	1	0	1	
6	0	0	0	0	508	1	0	0	
7	0	0	0	0	511	3	0	0	
8	0	0	0	0	513	1	0	0	
9	0	0	0	0	511	1	0	0	
10	0	0	0	0	512	1	0	0	
11	0	0	0	0	511	0	0	0	
12	0	0	0	0	512	1	0	0	
13	0	0	0	0	511	1	0	1	
14	0	0	0	0	513	1	0	0	
15	0	0	0	0	511	3	0	0	
0	0	0	0	0	512	1	0	0	
1	0	0	0	0	512	1	0	0	
2	0	0	0	0	511	1	0	0	
3	0	0	0	0	513	0	0	0	
4	0	0	0	0	510	1	0	0	
5	0	0	0	0	509	1	0	1	
6	0	0	0	0	511	1	0	0	
7	0	0	0	0	512	3	0	0	
8	0	0	0	0	511	1	0	0	
9	0	0	0	0	511	1	0	0	
10	0	0	0	0	510	1	0	0	
11	0	0	0	0	512	0	0	0	
12	0	0	0	0	511	1	0	0	
13	0	0	0	0	512	1	0	1	
14	0	0	0	0	511	1	0	0	
15	0	0	0	0	512	3	0	0	
0	0	0	0	0	512	1	0	0	
1	0	0	0	0	511	1	0	0	
2	0	0	0	0	511	1	0	0	
3	0	0	0	0	512	1	0	0	
4	0	0	0	0	510	1	0	0	
5	0	0	0	0	512	0	0	1	
6	0	0	0	0	510	1	0	0	
7	0	0	0	0	510	3	0	0	
8	0	0	0	0	508	1	0	0	
9	0	0	0	0	511	1	0	0	
10	0	0	0	0	510	1	0	0	
11	0	0	0	0	511	0	0	0	
12	0	0	0	0	512	1	0	0	
13	0	0	0	0	512	0	0	1	
14	0	0	0	0	513	1	0	0	
15	0	0	0	0	513	3	0	0	
0	0	0	0	0	512	1	0	0	
1	0	0	0	0	512	1	0	0	
2	0	0	0	0	512	1	0	0	
3	0	0	0	0	511	0	0	0	
4	0	0	0	0	514	1	0	0	
5	0	0	0	0	513	1	0	1	
6	0	0	0	0	509	1	0	0	
7	0	0	0	0	509	1	0	0	
8	0	0	0	0	512	1	0	0	
9	0	0	0	0	510	1	0	0	
10	0	0	0	0	510	1	0	0	
11	0	0	0	0	510	0	0	0	
12	0	0	0	0	513	1	0	0	
13	0	0	0	0	512	1	0	1	
14	0	0	0	0	512	1	0	0	
15	0	0	0	0	512	1	0	0	
0	0	0	0	0	511	1	0	0	
1	0	0	0	0	511	1	0	0	
2	0	0	0	0	512	1	0	0	
3	0	0	0	0	512	1	0	0	
4	0	0	0	0	511	1	0	0	
5	0	0	0	0	513	1	0	1	
6	0	0	0	0	512	1	0	0	
7	0	0	0	0	508	1	0	0	
8	0	0	0	0	508	1	0	0	
9	0	0	0	0	511	1	0	0	
10	0	0	0	0	510	1	0	0	
11	0	0	0	0	511	1	0	0	
12	0	0	0	0	509	1	0	0	
13	0	0	0	0	512	0	0	1	
14	0	0	0	0	515	1	0	0	
15	0	0	0	0	514	3	0	0	
0	0	0	0	0	512	1	0	0	
1	0	0	0	0	511	1	0	0	
2	0	0	0	0	512	1	0	0	
3	0	0	0	0	511	1	0	0	
4	0	0	0	0	512	1	0	0	
5	0	0	0	0	512	0	0	1	
6	0	0	0	0	509	1	0	0	
7	0	0	0	0	509	3	0	0	
8	0	0	0	0	508	1	0	0	
9	0	0	0	0	508	1	0	0	
10	0	0	0	0	510	1	0	0	
11	0	0	0	0	510	1	0	0	
12	0	0	0	0	513	1	0	0	
13	0	0	0	0	511	0	0	1	
14	0	0	0	0	512	1	0	0	
15	0	0	0	0	513	3	0	0	
0	0	0	0	0	514	1	0	0	
1	0	0	0	0	512	1	0	0	
2	0	0	0	0	511	1	0	0	
3	0	0	0	0	513	0	0	0	
4	0	0	0	0	512	1	0	0	
5	0	0	0	0	510	1	0	1	
6	0	0	0	0	513	1	0	0	
7	0	0	0	0	508	3	0	0	
8	0	0	0	0	512	1	0	0	
9	0	0	0	0	511	1	0	0	
10	0	0	0	0	509	1	0	0	
11	0	0	0	0	508	0	0	0	
12	0	0	0	0	509	1	0	0	
13	0	0	0	0	512	1	0	1	
14	0	0	0	0	512	1	0	0	
15	0	0	0	0	514	3	0	0	
0	0	0	0	0	515	1	0	0	
1	0	0	0	0	513	1	0	0	
2	0	0	0	0	513	1	0	0	
3	0	0	0	0	512	0	0	0	
4	0	0	0	0	514	1	0	0	
5	0	0	0	0	511	1	0	1	
6	0	0	0	0	512	1	0	0	
7	0	0	0	0	510	3	0	0	
8	0	0	0	0	513	1	0	0	
9	0	0	0	0	508	1	0	0	
10	0	0	0	0	511	0	0	0	
11	0	0	0	0	509	1	0	0	
12	0	0	0	0	510	1	0	0	
13	0	0	0	0	510	1	0	1	
14	0	0	0	0	511	1	0	0	
15	0	0	0	0	509	3	0	0	
0	0	0	0	0	512	1	0	0	
1	0	0	0	0	512	1	0	0	
2	0	0	0	0	513	0	0	0	
3	0	0	0	0	512	1	0	0	
4	0	0	0	0	511	1	0	0	
5	0	0	0	0	511	1	0	1	
6	0	0	0	0	511	1	0	0	
7	0	0	0	0	513	3	0	0	
8	0	0	0	0	512	1	0	0	
9	0	0	0	0	512	1	0	0	
10	0	0	0	0	511	0	0	0	
11	0	0	0	0	508	0	0	0	
12	0	0	0	0	509	1	0	0	
13	0	0	0	0	511	1	0	1	
14	0	0	0	0	511	1	0	0	
15	0	0	0	0	511	3	0	0	
0	0	0	0	0	511	1	0	0	
1	0	0	0	0	512	1	0	0	
2	0	0	0	0	512	1	0	0	
3	0	0	0	0	513	1	0	0	
4	0	0	0	0	513	1	0	0	
5	0	0	0	0	511	1	0	1	
6	0	0	0	0	509	1	0	0	
7	0	0	0	0	514	3	0	0	
8	0	0	0	0	512	0	0	0	
9	0	0	0	0	511	1	0	0	
10	0	0	0	0	513	1	0	0	
11	0	0	0	0	510	1	0	0	
12	0	0	0	0	511	1	0	0	
13	0	0	0	0	510	1	0	1	
14	0	0	0	0	512	1	0	0	
15	0	0	0	0	512	3	0	0	
0	0	0	0	0	508	1	0	0	
1	0	0	0	0	511	1	0	0	
2	0	0	0	0	511	1	0	0	
3	0	0	0	0	511	0	0	0	
4	0	0	0	0	511	1	0	0	
5	0	0	0	0	510	1	0	1	
6	0	0	0	0	512	1	0	0	
7	0	0	0	0	512	1	0	0	
8	0	0	0	0	513	1	0	0	
9	0	0	0	0	515	1	0	0	
10	0	0	0	0	513	1	0	0	
11	0	0	0	0	511	0	0	0	
12	0	0	0	0	509	1	0	0	
13	0	0	0	0	511	1	0	1	
14	0	0	0	0	512	1	0	0	
15	0	0	0	0	508	1	0	0	
0	0	0	0	0	512	1	0	0	
1	0	0	0	0	512	1	0	0	
2	0	0	0	0	514	1	0	0	
3	0	0	0	0	513	1	0	0	
4	0	0	0	0	513	1	0	0	
5	0	0	0	0	512	1	0	1	
6	0	0	0	0	512	1	0	0	
7	0	0	0	0	510	3	0	0	
8	0	0	0	0	510	1	0	0	
9	0	0	0	0	510	1	0	0	
10	0	0	0	0	513	1	0	0	
11	0	0	0	0	509	1	0	0	
12	0	0	0	0	510	1	0	0	
13	0	0	0	0	510	1	0	1	
14	0	0	0	0	510	1	0	0	
15	0	0	0	0	511	3	0	0	
0	0	0	0	0	510	0	0	0	
1	0	0	0	0	513	1	0	0	
2	0	0	0	0	510	1	0	0	
3	0	0	0	0	512	0	0	0	
4	0	0	0	0	511	1	0	0	
5	0	0	0	0	512	1	0	1	
6	0	0	0	0	513	1	0	0	
7	0	0	0	0	511	3	0	0	
8	0	0	0	0	511	1	0	0	
9	0	0	0	0	510	1	0	0	
10	0	0	0	0	512	1	0	0	
11	0	0	0	0	513	1	0	0	
12	0	0	0	0	511	1	0	0	
13	0	0	0	0	510	1	0	1	
14	0	0	0	0	508	1	0	0	
15	0	0	0	0	509	3	0	0	
0	0	0	0	0	510	1	0	0	
1	0	0	0	0	510	1	0	0	
2	0	0	0	0	511	0	0	0	
3	0	0	0	0	512	1	0	0	
4	0	0	0	0	511	1	0	0	
5	0	0	0	0	515	1	0	1	
6	0	0	0	0	512	1	0	0	
7	0	0	0	0	513	3	0	0	
8	0	0	0	0	512	1	0	0	
9	0	0	0	0	512	1	0	0	
10	0	0	0	0	510	0	0	0	
11	0	0	0	0	511	1	0	0	
12	0	0	0	0	512	1	0	0	
13	0	0	0	0	510	1	0	1	
14	0	0	0	0	510	1	0	0	
15	0	0	0	0	511	3	0	0	
0	0	0	0	0	510	1	0	0	
1	0	0	0	0	510	1	0	0	
2	0	0	0	0	511	1	0	0	
3	0	0	0	0	510	0	0	0	
4	0	0	0	0	512	1	0	0	
5	0	0	0	0	511	1	0	1	
6	0	0	0	0	512	1	0	0	
7	0	0	0	0	513	3	0	0	
8	0	0	0	0	512	1	0	0	
9	0	0	0	0	513	1	0	0	
10	0	0	0	0	512	1	0	0	
11	0	0	0	0	512	0	0	0	
12	0	0	0	0	509	1	0	0	
13	0	0	0	0	510	1	0	1	
14	0	0	0	0	510	1	0	0	
15	0	0	0	0	510	3	0	0	
0	0	0	0	0	512	1	0	0	
1	0	0	0	0	512	1	0	0	
2	0	0	0	0	510	1	0	0	
3	0	0	0	0	511	0	0	0	
4	0	0	0	0	512	1	0	0	
5	0	0	0	0	513	1	0	1	
6	0	0	0	0	511	1	0	0	
7	0	0	0	0	512	3	0	0	
8	0	0	0	0	513	1	0	0	
9	0	0	0	0	512	1	0	0	
10	0	0	0	0	512	1	0	0	
11	0	0	0	0	511	0	0	0	
12	0	0	0	0	511	1	0	0	
13	0	0	0	0	511	0	0	1	
14	0	0	0	0	510	1	0	0	
15	0	0	0	0	511	3	0	0	
0	0	0	0	0	508	1	0	0	
1	0	0	0	0	510	1	0	0	
2	0	0	0	0	510	1	0	0	
3	0	0	0	0	511	1	0	0	
4	0	0	0	0	513	1	0	0	
5	0	0	0	0	512	0	0	1	
6	0	0	0	0	511	1	0	0	
7	0	0	0	0	512	3	0	0	
8	0	0	0	0	513	1	0	0	
9	0	0	0	0	511	1	0	0	
10	0	0	0	0	511	1	0	0	
11	0	0	0	0	512	0	0	0	
12	0	0	0	0	511	1	0	0	
13	0	0	0	0	513	0	0	1	
14	0	0	0	0	511	1	0	0	
15	0	0	0	0	510	1	0	0	
0	0	0	0	0	508	1	0	0	
1	0	0	0	0	510	1	0	0	
2	0	0	0	0	510	1	0	0	
3	0	0	0	0	513	1	0	0	
4	0	0	0	0	511	1	0	0	
5	0	0	0	0	511	1	0	1	
6	0	0	0	0	513	1	0	0	
7	0	0	0	0	514	1	0	0	
8	0	0	0	0	511	1	0	0	
9	0	0	0	0	512	1	0	0	
10	0	0	0	0	513	1	0	0	
11	0	0	0	0	514	1	0	0	
12	0	0	0	0	511	1	0	0	
13	0	0	0	0	511	1	0	1	
14	0	0	0	0	510	1	0	0	
15	0	0	0	0	510	1	0	0	
0	0	0	0	0	510	1	0	0	
1	0	0	0	0	510	1	0	0	
2	0	0	0	0	509	1	0	0	
3	0	0	0	0	511	1	0	0	
4	0	0	0	0	511	1	0	0	
5	0	0	0	0	511	0	0	1	
6	0	0	0	0	511	1	0	0	
7	0	0	0	0	510	3	0	0	
8	0	0	0	0	512	1	0	0	
9	0	0	0	0	510	1	0	0	
10	0	0	0	0	512	1	0	0	
11	0	0	0	0	514	0	0	0	
12	0	0	0	0	513	1	0	0	
13	0	0	0	0	513	0	0	1	
14	0	0	0	0	512	1	0	0	
15	0	0	0	0	512	3	0	0	
0	0	0	0	0	510	1	0	0	
1	0	0	0	0	510	1	0	0	
2	0	0	0	0	508	1	0	0	
3	0	0	0	0	510	1	0	0	
4	0	0	0	0	512	1	0	0	
5	0	0	0	0	512	0	0	1	
6	0	0	0	0	511	1	0	0	
7	0	0	0	0	513	3	0	0	
8	0	0	0	0	512	1	0	0	
9	0	0	0	0	511	1	0	0	
10	0	0	0	0	512	1	0	0	
11	0	0	0	0	514	0	0	0	
12	0	0	0	0	512	1	0	0	
13	0	0	0	0	510	1	0	1	
14	0	0	0	0	513	1	0	0	
15	0	0	0	0	512	3	0	0	
0	0	0	0	0	511	1	0	0	
1	0	0	0	0	511	1	0	0	
2	0	0	0	0	511	1	0	0	
3	0	0	0	0	511	0	0	0	
4	0	0	0	0	507	1	0	0	
5	0	0	0	0	508	1	0	1	
6	0	0	0	0	511	1	0	0	
7	0	0	0	0	512	3	0	0	
8	0	0	0	0	513	1	0	0	
9	0	0	0	0	512	1	0	0	
10	0	0	0	0	513	1	0	0	
11	0	0	0	0	511	0	0	0	
12	0	0	0	0	510	1	0	0	
13	0	0	0	0	512	1	0	1	
14	0	0	0	0	512	1	0	0	
15	0	0	0	0	512	3	0	0	
0	0	0	0	0	510	1	0	0	
1	0	0	0	0	511	1	0	0	
2	0	0	0	0	510	0	0	0	
3	0	0	0	0	510	1	0	0	
4	0	0	0	0	511	1	0	0	
5	0	0	0	0	510	1	0	1	
6	0	0	0	0	510	1	0	0	
7	0	0	0	0	511	3	0	0	
8	0	0	0	0	511	1	0	0	
9	0	0	0	0	512	1	0	0	
10	0	0	0	0	512	0	0	0	
11	0	0	0	0	514	1	0	0	
12	0	0	0	0	511	1	0	0	
13	0	0	0	0	511	1	0	1	
14	0	0	0	0	511	1	0	0	
15	0	0	0	0	512	3	0	0	
0	0	0	0	0	513	1	0	0	
1	0	0	0	0	512	1	0	0	
2	0	0	0	0	509	0	0	0	
3	0	0	0	0	513	1	0	0	
4	0	0	0	0	511	1	0	0	
5	0	0	0	0	509	1	0	0	
6	0	0	0	0	512	1	0	0	
7	0	0	0	0	511	3	0	0	
8	0	0	0	0	511	1	0	0	
9	0	0	0	0	511	1	0	0	
10	0	0	0	0	512	1	0	0	
11	0	0	0	0	512	0	0	0	
12	0	0	0	0	511	1	0	0	
13	0	0	0	0	512	1	0	1	
14	0	0	0	0	511	1	0	0	
15	0	0	0	0	511	3	0	0	
0	0	0	0	0	512	0	0	0	
1	0	0	0	0	512	1	0	0	
2	0	0	0	0	511	1	0	0	
3	0	0	0	0	511	0	0	0	
4	0	0	0	0	509	1	0	0	
5	0	0	0	0	508	1	0	1	
6	0	0	0	0	511	1	0	0	
7	0	0	0	0	512	3	0	0	
8	0	0	0	0	512	1	0	0	
9	0	0	0	0	511	1	0	0	
10	0	0	0	0	512	1	0	0	
11	0	0	0	0	512	0	0	0	
12	0	0	0	0	513	1	0	0	
13	0	0	0	0	512	1	0	1	
14	0	0	0	0	511	1	0	0	
15	0	0	0	0	512	1	0	0	
0	0	0	0	0	512	1	0	0	
1	0	0	0	0	512	1	0	0	
2	0	0	0	0	512	1	0	0	
3	0	0	0	0	510	1	0	0	
4	0	0	0	0	511	1	0	0	
5	0	0	0	0	511	1	0	1	
6	0	0	0	0	510	1	0	0	
7	0	0	0	0	511	1	0	0	
8	0	0	0	0	511	1	0	0	
9	0	0	0	0	511	1	0	0	
10	0	0	0	0	511	1	0	0	
11	0	0	0	0	511	1	0	0	
12	0	0	0	0	511	1	0	0	
13	0	0	0	0	512	1	0	1	
14	0	0	0	0	511	1	0	0	
15	0	0	0	0	512	1	0	0	
0	0	0	0	0	513	1	0	0	
1	0	0	0	0	512	1	0	0	
2	0	0	0	0	512	1	0	0	
3	0	0	0	0	512	0	0	0	
4	0	0	0	0	511	1	0	0	
5	0	0	0	0	509	1	0	1	
6	0	0	0	0	511	1	0	0	
7	0	0	0	0	509	3	0	0	
8	0	0	0	0	509	1	0	0	
9	0	0	0	0	512	1	0	0	
10	0	0	0	0	511	1	0	0	
11	0	0	0	0	512	0	0	0	
12	0	0	0	0	513	1	0	0	
13	0	0	0	0	512	1	0	1	
14	0	0	0	0	515	1	0	0	
15	0	0	0	0	513	3	0	0	
0	0	0	0	0	512	0	0	0	
1	0	0	0	0	511	1	0	0	
2	0	0	0	0	512	1	0	0	
3	0	0	0	0	511	0	0	0	
4	0	0	0	0	510	1	0	0	
5	0	0	0	0	510	1	0	1	
6	0	0	0	0	508	1	0	0	
7	0	0	0	0	508	3	0	0	
8	0	0	0	0	510	1	0	0	
9	0	0	0	0	510	1	0	0	
10	0	0	0	0	512	0	0	0	
11	0	0	0	0	511	1	0	0	
12	0	0	0	0	511	1	0	0	
13	0	0	0	0	512	1	0	1	
14	0	0	0	0	513	1	0	0	
15	0	0	0	0	513	3	0	0	
0	0	0	0	0	513	1	0	0	
1	0	0	0	0	511	1	0	0	
2	0	0	0	0	510	0	0	0	
3	0	0	0	0	511	1	0	0	
4	0	0	0	0	511	1	0	0	
5	0	0	0	0	511	1	0	1	
6	0	0	0	0	510	1	0	0	
7	0	0	0	0	510	3	0	0	
8	0	0	0	0	510	1	0	0	
9	0	0	0	0	511	1	0	0	
10	0	0	0	0	512	0	0	0	
11	0	0	0	0	511	1	0	0	
12	0	0	0	0	512	1	0	0	
13	0	0	0	0	511	1	0	1	
14	0	0	0	0	513	1	0	0	
15	0	0	0	0	512	3	0	0	
0	0	0	0	0	513	1	0	0	
1	0	0	0	0	511	1	0	0	
2	0	0	0	0	513	1	0	0	
3	0	0	0	0	510	0	0	0	
4	0	0	0	0	511	1	0	0	
5	0	0	0	0	508	1	0	1	
6	0	0	0	0	510	1	0	0	
7	0	0	0	0	509	3	0	0	
8	0	0	0	0	511	1	0	0	
9	0	0	0	0	511	1	0	0	
10	0	0	0	0	512	1	0	0	
11	0	0	0	0	511	0	0	0	
12	0	0	0	0	510	1	0	0	
13	0	0	0	0	510	1	0	1	
14	0	0	0	0	515	1	0	0	
15	0	0	0	0	512	3	0	0	
0	0	0	0	0	510	1	0	0	
1	0	0	0	0	513	1	0	0	
2	0	0	0	0	513	1	0	0	
3	0	0	0	0	511	1	0	0	
4	0	0	0	0	512	1	0	0	
5	0	0	0	0	511	0	0	1	
6	0	0	0	0	510	1	0	0	
7	0	0	0	0	512	3	0	0	
8	0	0	0	0	509	1	0	0	
9	0	0	0	0	509	1	0	0	
10	0	0	0	0	511	1	0	0	
11	0	0	0	0	511	1	0	0	
12	0	0	0	0	512	1	0	0	
13	0	0	0	0	510	0	0	1	
14	0	0	0	0	513	1	0	0	
15	0	0	0	0	513	3	0	0	
0	0	0	0	0	513	1	0	0	
1	0	0	0	0	513	1	0	0	
2	0	0	0	0	512	1	0	0	
3	0	0	0	0	511	1	0	0	
4	0	0	0	0	513	1	0	0	
5	0	0	0	0	511	0	0	1	
6	0	0	0	0	510	1	0	0	
7	0	0	0	0	512	3	0	0	
8	0	0	0	0	510	1	0	0	
9	0	0	0	0	509	1	0	0	
10	0	0	0	0	510	1	0	0	
11	0	0	0	0	510	1	0	0	
12	0	0	0	0	509	1	0	0	
13	0	0	0	0	512	1	0	1	
14	0	0	0	0	513	1	0	0	
15	0	0	0	0	514	1	0	0	
0	0	0	0	0	510	1	0	0	
1	0	0	0	0	511	1	0	0	
2	0	0	0	0	512	1	0	0	
3	0	0	0	0	512	1	0	0	
4	0	0	0	0	511	1	0	0	
5	0	0	0	0	513	1	0	1	
6	0	0	0	0	514	1	0	0	
7	0	0	0	0	512	1	0	0	
8	0	0	0	0	511	1	0	0	
9	0	0	0	0	510	1	0	0	
10	0	0	0	0	507	1	0	0	
11	0	0	0	0	511	0	0	0	
12	0	0	0	0	510	1	0	0	
13	0	0	0	0	510	1	0	1	
14	0	0	0	0	513	1	0	0	
15	0	0	0	0	513	3	0	0	
0	0	0	0	0	511	1	0	0	
1	0	0	0	0	513	1	0	0	
2	0	0	0	0	512	1	0	0	
3	0	0	0	0	511	1	0	0	
4	0	0	0	0	512	1	0	0	
5	0	0	0	0	513	0	0	1	
6	0	0	0	0	513	1	0	0	
7	0	0	0	0	512	3	0	0	
8	0	0	0	0	511	1	0	0	
9	0	0	0	0	509	1	0	0	
10	0	0	0	0	507	1	0	0	
11	0	0	0	0	511	1	0	0	
12	0	0	0	0	510	1	0	0	
13	0	0	0	0	512	0	0	1	
14	0	0	0	0	513	1	0	0	
15	0	0	0	0	513	3	0	0	
0	0	0	0	0	513	1	0	0	
1	0	0	0	0	512	1	0	0	
2	0	0	0	0	512	1	0	0	
3	0	0	0	0	512	0	0	0	
4	0	0	0	0	511	1	0	0	
5	0	0	0	0	513	1	0	1	
6	0	0	0	0	510	1	0	0	
7	0	0	0	0	510	3	0	0	
8	0	0	0	0	510	1	0	0	
9	0	0	0	0	510	1	0	0	
10	0	0	0	0	510	1	0	0	
11	0	0	0	0	510	0	0	0	
12	0	0	0	0	509	1	0	0	
13	0	0	0	0	507	1	0	1	
14	0	0	0	0	510	1	0	0	
15	0	0	0	0	512	3	0	0	
0	0	0	0	0	513	1	0	0	
1	0	0	0	0	512	1	0	0	
2	0	0	0	0	511	1	0	0	
3	0	0	0	0	512	0	0	0	
4	0	0	0	0	511	1	0	0	
5	0	0	0	0	511	1	0	1	
6	0	0	0	0	512	1	0	0	
7	0	0	0	0	512	3	0	0	
8	0	0	0	0	513	1	0	0	
9	0	0	0	0	513	1	0	0	
10	0	0	0	0	511	0	0	0	
11	0	0	0	0	508	0	0	0	
12	0	0	0	0	510	1	0	0	
13	0	0	0	0	510	1	0	1	
14	0	0	0	0	511	1	0	0	
15	0	0	0	0	508	3	0	0	
0	0	0	0	0	511	1	0	0	
1	0	0	0	0	511	1	0	0	
2	0	0	0	0	513	0	0	0	
3	0	0	0	0	513	0	0	0	
4	0	0	0	0	513	1	0	0	
5	0	0	0	0	513	1	0	1	
6	0	0	0	0	512	1	0	0	
7	0	0	0	0	512	3	0	0	
8	0	0	0	0	512	1	0	0	
9	0	0	0	0	511	1	0	0	
10	0	0	0	0	511	0	0	0	
11	0	0	0	0	508	1	0	0	
12	0	0	0	0	510	1	0	0	
13	0	0	0	0	510	1	0	1	
14	0	0	0	0	508	1	0	0	
15	0	0	0	0	510	3	0	0	
0	0	0	0	0	511	0	0	0	
1	0	0	0	0	511	1	0	0	
2	0	0	0	0	513	1	0	0	
3	0	0	0	0	511	0	0	0	
4	0	0	0	0	513	1	0	0	
5	0	0	0	0	512	1	0	1	
6	0	0	0	0	513	1	0	0	
7	0	0	0	0	512	3	0	0	
8	0	0	0	0	511	1	0	0	
9	0	0	0	0	512	1	0	0	
10	0	0	0	0	513	1	0	0	
11	0	0	0	0	511	1	0	0	
12	0	0	0	0	510	1	0	0	
13	0	0	0	0	511	1	0	1	
14	0	0	0	0	507	1	0	0	
15	0	0	0	0	511	3	0	0	
0	0	0	0	0	512	0	0	0	
1	0	0	0	0	513	1	0	0	
2	0	0	0	0	512	1	0	0	
3	0	0	0	0	511	1	0	0	
4	0	0	0	0	511	1	0	0	
5	0	0	0	0	512	1	0	1	
6	0	0	0	0	511	1	0	0	
7	0	0	0	0	511	1	0	0	
8	0	0	0	0	510	1	0	0	
9	0	0	0	0	511	1	0	0	
10	0	0	0	0	512	1	0	0	
11	0	0	0	0	510	1	0	0	
12	0	0	0	0	512	1	0	0	
13	0	0	0	0	510	1	0	1	
14	0	0	0	0	511	1	0	0	
15	0	0	0	0	511	1	0	0	
0	0	0	0	0	512	1	0	0	
1	0	0	0	0	512	1	0	0	
2	0	0	0	0	510	1	0	0	
3	0	0	0	0	513	1	0	0	
4	0	0	0	0	512	1	0	0	
5	0	0	0	0	514	1	0	1	
6	0	0	0	0	512	1	0	0	
7	0	0	0	0	513	2	0	0	
8	0	0	0	0	511	1	0	0	
9	0	0	0	0	512	1	0	0	
10	0	0	0	0	511	1	0	0	
11	0	0	0	0	509	1	0	0	
12	0	0	0	0	510	1	0	0	
13	0	0	0	0	509	1	0	1	
14	0	0	0	0	508	1	0	0	
15	0	0	0	0	511	3	0	0	
0	0	0	0	0	512	0	0	0	
1	0	0	0	0	510	1	0	0	
2	0	0	0	0	510	1	0	0	
3	0	0	0	0	512	0	0	0	
4	0	0	0	0	512	1	0	0	
5	0	0	0	0	512	1	0	1	
6	0	0	0	0	513	1	0	0	
7	0	0	0	0	511	3	0	0	
8	0	0	0	0	512	1	0	0	
9	0	0	0	0	511	1	0	0	
10	0	0	0	0	511	1	0	0	
11	0	0	0	0	511	1	0	0	
12	0	0	0	0	511	1	0	0	
13	0	0	0	0	510	1	0	1	
14	0	0	0	0	513	1	0	0	
15	0	0	0	0	511	3	0	0	
0	0	0	0	0	508	0	0	0	
1	0	0	0	0	508	1	0	0	
2	0	0	0	0	511	0	0	0	
3	0	0	0	0	511	1	0	0	
4	0	0	0	0	512	1	0	0	
5	0	0	0	0	510	1	0	1	
6	0	0	0	0	513	1	0	0	
7	0	0	0	0	512	3	0	0	
8	0	0	0	0	513	1	0	0	
9	0	0	0	0	511	1	0	0	
10	0	0	0	0	511	0	0	0	
11	0	0	0	0	510	0	0	0	
12	0	0	0	0	512	1	0	0	
13	0	0	0	0	511	1	0	1	
14	0	0	0	0	511	1	0	0	
15	0	0	0	0	512	3	0	0	
0	0	0	0	0	510	1	0	0	
1	0	0	0	0	510	1	0	0	
2	0	0	0	0	512	0	0	0	
3	0	0	0	0	512	1	0	0	
4	0	0	0	0	511	1	0	0	
5	0	0	0	0	511	1	0	1	
6	0	0	0	0	513	1	0	0	
7	0	0	0	0	514	3	0	0	
8	0	0	0	0	511	1	0	0	
9	0	0	0	0	512	1	0	0	
10	0	0	0	0	511	1	0	0	
11	0	0	0	0	512	0	0	0	
12	0	0	0	0	512	1	0	0	
13	0	0	0	0	511	1	0	1	
14	0	0	0	0	511	1	0	0	
15	0	0	0	0	509	3	0	0	
0	0	0	0	0	509	1	0	0	
1	0	0	0	0	511	1	0	0	
2	0	0	0	0	512	1	0	0	
3	0	0	0	0	511	0	0	0	
4	0	0	0	0	513	1	0	0	
5	0	0	0	0	511	1	0	1	
6	0	0	0	0	510	1	0	0	
7	0	0	0	0	511	3	0	0	
8	0	0	0	0	512	1	0	0	
9	0	0	0	0	514	1	0	0	
10	0	0	0	0	511	1	0	0	
11	0	0	0	0	512	0	0	0	
12	0	0	0	0	513	1	0	0	
13	0	0	0	0	512	0	0	1	
14	0	0	0	0	513	1	0	0	
15	0	0	0	0	512	3	0	0	
0	0	0	0	0	510	1	0	0	
1	0	0	0	0	509	1	0	0	
2	0	0	0	0	509	1	0	0	
3	0	0	0	0	508	1	0	0	
4	0	0	0	0	510	1	0	0	
5	0	0	0	0	511	0	0	1	
6	0	0	0	0	508	1	0	0	
7	0	0	0	0	512	3	0	0	
8	0	0	0	0	512	1	0	0	
9	0	0	0	0	512	1	0	0	
10	0	0	0	0	513	1	0	0	
11	0	0	0	0	513	1	0	0	
12	0	0	0	0	510	1	0	0	
13	0	0	0	0	511	0	0	1	
14	0	0	0	0	511	1	0	0	
15	0	0	0	0	512	3	0	0	
0	0	0	0	0	511	1	0	0	
1	0	0	0	0	513	1	0	0	
2	0	0	0	0	511	1	0	0	
3	0	0	0	0	510	1	0	0	
4	0	0	0	0	509	1	0	0	
5	0	0	0	0	510	1	0	1	
6	0	0	0	0	512	1	0	0	
7	0	0	0	0	512	1	0	0	
8	0	0	0	0	513	1	0	0	
9	0	0	0	0	517	1	0	0	
10	0	0	0	0	512	1	0	0	
11	0	0	0	0	511	1	0	0	
12	0	0	0	0	509	1	0	0	
13	0	0	0	0	511	1	0	1	
14	0	0	0	0	511	1	0	0	
15	0	0	0	0	512	1	0	0	
0	0	0	0	0	510	1	0	0	
1	0	0	0	0	510	1	0	0	
2	0	0	0	0	509	1	0	0	
3	0	0	0	0	511	1	0	0	
4	0	0	0	0	510	1	0	0	
5	0	0	0	0	510	1	0	1	
6	0	0	0	0	512	1	0	0	
7	0	0	0	0	511	1	0	0	
8	0	0	0	0	513	1	0	0	
9	0	0	0	0	514	1	0	0	
10	0	0	0	0	512	1	0	0	
11	0	0	0	0	514	1	0	0	
12	0	0	0	0	512	1	0	0	
13	0	0	0	0	512	0	0	1	
14	0	0	0	0	511	1	0	0	
15	0	0	0	0	511	3	0	0	
0	0	0	0	0	511	1	0	0	
1	0	0	0	0	511	1	0	0	
2	0	0	0	0	509	1	0	0	
3	0	0	0	0	511	1	0	0	
4	0	0	0	0	510	1	0	0	
5	0	0	0	0	510	0	0	1	
6	0	0	0	0	511	1	0	0	
7	0	0	0	0	511	3	0	0	
8	0	0	0	0	512	1	0	0	
9	0	0	0	0	513	1	0	0	
10	0	0	0	0	512	1	0	0	
11	0	0	0	0	513	1	0	0	
12	0	0	0	0	512	1	0	0	
13	0	0	0	0	513	0	0	1	
14	0	0	0	0	513	1	0	0	
15	0	0	0	0	511	3	0	0	
0	0	0	0	0	511	1	0	0	
1	0	0	0	0	512	1	0	0	
2	0	0	0	0	512	1	0	0	
3	0	0	0	0	513	0	0	0	
4	0	0	0	0	510	1	0	0	
5	0	0	0	0	509	1	0	1	
6	0	0	0	0	509	1	0	0	
7	0	0	0	0	511	3	0	0	
8	0	0	0	0	511	1	0	0	
9	0	0	0	0	511	1	0	0	
10	0	0	0	0	511	1	0	0	
11	0	0	0	0	511	0	0	0	
12	0	0	0	0	511	1	0	0	
13	0	0	0	0	510	1	0	1	
14	0	0	0	0	512	1	0	0	
15	0	0	0	0	511	3	0	0	
0	0	0	0	0	512	1	0	0	
1	0	0	0	0	510	1	0	0	
2	0	0	0	0	511	1	0	0	
3	0	0	0	0	509	0	0	0	
4	0	0	0	0	511	1	0	0	
5	0	0	0	0	512	1	0	1	
6	0	0	0	0	513	1	0	0	
7	0	0	0	0	510	3	0	0	
8	0	0	0	0	511	1	0	0	
9	0	0	0	0	509	1	0	0	
10	0	0	0	0	514	0	0	0	
11	0	0	0	0	512	1	0	0	
12	0	0	0	0	513	1	0	0	
13	0	0	0	0	509	1	0	1	
14	0	0	0	0	511	1	0	0	
15	0	0	0	0	513	3	0	0	
0	0	0	0	0	510	1	0	0	
1	0	0	0	0	512	1	0	0	
2	0	0	0	0	511	0	0	0	
3	0	0	0	0	511	1	0	0	
4	0	0	0	0	511	1	0	0	
5	0	0	0	0	511	1	0	1	
6	0	0	0	0	512	1	0	0	
7	0	0	0	0	510	3	0	0	
8	0	0	0	0	511	1	0	0	
9	0	0	0	0	511	1	0	0	
10	0	0	0	0	513	1	0	0	
11	0	0	0	0	511	1	0	0	
12	0	0	0	0	512	1	0	0	
13	0	0	0	0	511	1	0	1	
14	0	0	0	0	510	1	0	0	
15	0	0	0	0	513	3	0	0	
0	0	0	0	0	513	1	0	0	
1	0	0	0	0	510	1	0	0	
2	0	0	0	0	512	1	0	0	
3	0	0	0	0	510	1	0	0	
4	0	0	0	0	511	1	0	0	
5	0	0	0	0	510	1	0	1	
6	0	0	0	0	509	1	0	0	
7	0	0	0	0	510	3	0	0	
8	0	0	0	0	510	0	0	0	
9	0	0	0	0	510	1	0	0	
10	0	0	0	0	510	1	0	0	
11	0	0	0	0	511	0	0	0	
12	0	0	0	0	512	1	0	0	
13	0	0	0	0	512	1	0	1	
14	0	0	0	0	513	1	0	0	
15	0	0	0	0	511	3	0	0	
0	0	0	0	0	513	1	0	0	
1	0	0	0	0	512	1	0	0	
2	0	0	0	0	511	1	0	0	
3	0	0	0	0	512	0	0	0	
4	0	0	0	0	510	1	0	0	
5	0	0	0	0	510	1	0	1	
6	0	0	0	0	511	1	0	0	
7	0	0	0	0	512	1	0	0	
8	0	0	0	0	512	1	0	0	
9	0	0	0	0	512	1	0	0	
10	0	0	0	0	511	1	0	0	
11	0	0	0	0	509	0	0	0	
12	0	0	0	0	511	1	0	0	
13	0	0	0	0	512	1	0	1	
14	0	0	0	0	514	1	0	0	
15	0	0	0	0	512	1	0	0	
0	0	0	0	0	511	1	0	0	
1	0	0	0	0	509	1	0	0	
2	0	0	0	0	510	1	0	0	
3	0	0	0	0	511	1	0	0	
4	0	0	0	0	513	1	0	0	
5	0	0	0	0	511	1	0	1	
6	0	0	0	0	510	1	0	0	
7	0	0	0	0	510	3	0	0	
8	0	0	0	0	509	1	0	0	
9	0	0	0	0	511	1	0	0	
10	0	0	0	0	512	1	0	0	
11	0	0	0	0	512	1	0	0	
12	0	0	0	0	509	1	0	0	
13	0	0	0	0	512	1	0	1	
14	0	0	0	0	509	1	0	0	
15	0	0	0	0	511	3	0	0	
0	0	0	0	0	513	0	0	0	
1	0	0	0	0	512	1	0	0	
2	0	0	0	0	510	1	0	0	
3	0	0	0	0	512	1	0	0	
4	0	0	0	0	513	1	0	0	
5	0	0	0	0	512	1	0	1	
6	0	0	0	0	511	1	0	0	
7	0	0	0	0	509	3	0	0	
8	0	0	0	0	509	0	0	0	
9	0	0	0	0	512	1	0	0	
10	0	0	0	0	512	1	0	0	
11	0	0	0	0	512	1	0	0	
12	0	0	0	0	511	1	0	0	
13	0	0	0	0	512	1	0	1	
14	0	0	0	0	514	1	0	0	
15	0	0	0	0	512	3	0	0	
0	0	0	0	0	511	1	0	0	
1	0	0	0	0	511	1	0	0	
2	0	0	0	0	512	0	0	0	
3	0	0	0	0	511	1	0	0	
4	0	0	0	0	514	1	0	0	
5	0	0	0	0	512	1	0	1	
6	0	0	0	0	511	1	0	0	
7	0	0	0	0	509	3	0	0	
8	0	0	0	0	509	1	0	0	
9	0	0	0	0	511	1	0	0	
10	0	0	0	0	511	0	0	0	
11	0	0	0	0	511	1	0	0	
12	0	0	0	0	511	1	0	0	
13	0	0	0	0	512	1	0	1	
14	0	0	0	0	512	1	0	0	
15	0	0	0	0	511	3	0	0	
0	0	0	0	0	512	1	0	0	
1	0	0	0	0	512	1	0	0	
2	0	0	0	0	512	1	0	0	
3	0	0	0	0	511	0	0	0	
4	0	0	0	0	514	1	0	0	
5	0	0	0	0	512	1	0	1	
6	0	0	0	0	511	1	0	0	
7	0	0	0	0	510	3	0	0	
8	0	0	0	0	511	1	0	0	
9	0	0	0	0	512	1	0	0	
10	0	0	0	0	512	1	0	0	
11	0	0	0	0	512	0	0	0	
12	0	0	0	0	512	1	0	0	
13	0	0	0	0	513	1	0	1	
14	0	0	0	0	511	1	0	0	
15	0	0	0	0	512	3	0	0	
0	0	0	0	0	512	1	0	0	
1	0	0	0	0	509	1	0	0	
2	0	0	0	0	511	1	0	0	
3	0	0	0	0	512	0	0	0	
4	0	0	0	0	512	1	0	0	
5	0	0	0	0	512	1	0	1	
6	0	0	0	0	511	1	0	0	
7	0	0	0	0	512	3	0	0	
8	0	0	0	0	510	1	0	0	
9	0	0	0	0	511	1	0	0	
10	0	0	0	0	509	1	0	0	
11	0	0	0	0	509	1	0	0	
12	0	0	0	0	510	1	0	0	
13	0	0	0	0	511	0	0	1	
14	0	0	0	0	511	1	0	0	
15	0	0	0	0	511	3	0	0	
0	0	0	0	0	512	1	0	0	
1	0	0	0	0	513	1	0	0	
2	0	0	0	0	512	1	0	0	
3	0	0	0	0	514	1	0	0	
4	0	0	0	0	513	1	0	0	
5	0	0	0	0	511	0	0	1	
6	0	0	0	0	511	1	0	0	
7	0	0	0	0	513	3	0	0	
8	0	0	0	0	511	1	0	0	
9	0	0	0	0	509	1	0	0	
10	0	0	0	0	508	1	0	0	
11	0	0	0	0	507	1	0	0	
12	0	0	0	0	511	1	0	0	
13	0	0	0	0	510	1	0	1	
14	0	0	0	0	511	1	0	0	
15	0	0	0	0	513	1	0	0	
0	0	0	0	0	513	1	0	0	
1	0	0	0	0	513	1	0	0	
2	0	0	0	0	512	1	0	0	
3	0	0	0	0	512	0	0	0	
4	0	0	0	0	513	1	0	0	
5	0	0	0	0	512	1	0	1	
6	0	0	0	0	513	1	0	0	
7	0	0	0	0	513	1	0	0	
8	0	0	0	0	511	1	0	0	
9	0	0	0	0	508	1	0	0	
10	0	0	0	0	509	1	0	0	
11	0	0	0	0	511	1	0	0	
12	0	0	0	0	511	1	0	0	
13	0	0	0	0	511	1	0	1	
14	0	0	0	0	510	1	0	0	
15	0	0	0	0	510	1	0	0	
0	0	0	0	0	513	1	0	0	
1	0	0	0	0	512	1	0	0	
2	0	0	0	0	514	1	0	0	
3	0	0	0	0	513	0	0	0	
4	0	0	0	0	513	1	0	0	
5	0	0	0	0	512	0	0	1	
6	0	0	0	0	513	1	0	0	
7	0	0	0	0	510	3	0	0	
8	0	0	0	0	511	1	0	0	
9	0	0	0	0	510	1	0	0	
10	0	0	0	0	510	1	0	0	
11	0	0	0	0	509	1	0	0	
12	0	0	0	0	508	1	0	0	
13	0	0	0	0	510	0	0	1	
14	0	0	0	0	512	1	0	0	
15	0	0	0	0	512	3	0	0	
0	0	0	0	0	511	1	0	0	
1	0	0	0	0	511	1	0	0	
2	0	0	0	0	514	1	0	0	
3	0	0	0	0	513	1	0	0	
4	0	0	0	0	514	1	0	0	
5	0	0	0	0	514	0	0	1	
6	0	0	0	0	512	1	0	0	
7	0	0	0	0	510	3	0	0	
8	0	0	0	0	510	1	0	0	
9	0	0	0	0	512	1	0	0	
10	0	0	0	0	511	1	0	0	
11	0	0	0	0	510	0	0	0	
12	0	0	0	0	510	1	0	0	
13	0	0	0	0	511	1	0	1	
14	0	0	0	0	508	1	0	0	
15	0	0	0	0	511	3	0	0	
0	0	0	0	0	511	1	0	0	
1	0	0	0	0	510	1	0	0	
2	0	0	0	0	511	1	0	0	
3	0	0	0	0	512	0	0	0	
4	0	0	0	0	513	1	0	0	
5	0	0	0	0	513	1	0	1	
6	0	0	0	0	511	1	0	0	
7	0	0	0	0	511	3	0	0	
8	0	0	0	0	512	1	0	0	
9	0	0	0	0	514	1	0	0	
10	0	0	0	0	511	1	0	0	
11	0	0	0	0	509	0	0	0	
12	0	0	0	0	511	1	0	0	
13	0	0	0	0	510	1	0	1	
14	0	0	0	0	510	1	0	0	
15	0	0	0	0	511	3	0	0	
0	0	0	0	0	511	1	0	0	
1	0	0	0	0	512	1	0	0	
2	0	0	0	0	510	0	0	0	
3	0	0	0	0	511	1	0	0	
4	0	0	0	0	512	1	0	0	
5	0	0	0	0	512	1	0	1	
6	0	0	0	0	512	1	0	0	
7	0	0	0	0	511	3	0	0	
8	0	0	0	0	512	1	0	0	
9	0	0	0	0	514	1	0	0	
10	0	0	0	0	512	0	0	0	
11	0	0	0	0	512	1	0	0	
12	0	0	0	0	510	1	0	0	
13	0	0	0	0	508	1	0	1	
14	0	0	0	0	509	1	0	0	
15	0	0	0	0	510	3	0	0	
0	0	0	0	0	510	1	0	0	
1	0	0	0	0	510	1	0	0	
2	0	0	0	0	511	0	0	0	
3	0	0	0	0	511	0	0	0	
4	0	0	0	0	513	1	0	0	
5	0	0	0	0	515	1	0	1	
6	0	0	0	0	513	1	0	0	
7	0	0	0	0	512	3	0	0	
8	0	0	0	0	511	1	0	0	
9	0	0	0	0	511	1	0	0	
10	0	0	0	0	513	1	0	0	
11	0	0	0	0	510	1	0	0	
12	0	0	0	0	511	1	0	0	
13	0	0	0	0	511	1	0	1	
14	0	0	0	0	510	1	0	0	
15	0	0	0	0	510	3	0	0	
0	0	0	0	0	512	1	0	0	
1	0	0	0	0	510	1	0	0	
2	0	0	0	0	512	1	0	0	
3	0	0	0	0	512	0	0	0	
4	0	0	0	0	513	1	0	0	
5	0	0	0	0	513	1	0	1	
6	0	0	0	0	512	1	0	0	
7	0	0	0	0	511	3	0	0	
8	0	0	0	0	512	1	0	0	
9	0	0	0	0	511	1	0	0	
10	0	0	0	0	511	1	0	0	
11	0	0	0	0	513	1	0	0	
12	0	0	0	0	511	1	0	0	
13	0	0	0	0	510	1	0	1	
14	0	0	0	0	508	1	0	0	
15	0	0	0	0	511	1	0	0	
0	0	0	0	0	511	1	0	0	
1	0	0	0	0	511	1	0	0	
2	0	0	0	0	510	1	0	0	
3	0	0	0	0	511	1	0	0	
4	0	0	0	0	513	1	0	0	
5	0	0	0	0	515	1	0	1	
6	0	0	0	0	514	1	0	0	
7	0	0	0	0	512	1	0	0	
8	0	0	0	0	512	1	0	0	
9	0	0	0	0	511	1	0	0	
10	0	0	0	0	513	1	0	0	
11	0	0	0	0	513	1	0	0	
12	0	0	0	0	511	1	0	0	
13	0	0	0	0	509	1	0	1	
14	0	0	0	0	508	1	0	0	
15	0	0	0	0	508	1	0	0	
0	0	0	0	0	510	1	0	0	
1	0	0	0	0	508	1	0	0	
2	0	0	0	0	510	1	0	0	
3	0	0	0	0	511	0	0	0	
4	0	0	0	0	511	1	0	0	
5	0	0	0	0	512	1	0	1	
6	0	0	0	0	513	1	0	0	
7	0	0	0	0	513	3	0	0	
8	0	0	0	0	513	1	0	0	
9	0	0	0	0	513	1	0	0	
10	0	0	0	0	512	1	0	0	
11	0	0	0	0	509	0	0	0	
12	0	0	0	0	510	1	0	0	
13	0	0	0	0	511	1	0	1	
14	0	0	0	0	510	1	0	0	
15	0	0	0	0	511	3	0	0	
0	0	0	0	0	512	0	0	0	
1	0	0	0	0	510	1	0	0	
2	0	0	0	0	511	1	0	0	
3	0	0	0	0	511	1	0	0	
4	0	0	0	0	510	1	0	0	
5	0	0	0	0	510	1	0	1	
6	0	0	0	0	511	1	0	0	
7	0	0	0	0	512	3	0	0	
8	0	0	0	0	512	1	0	0	
9	0	0	0	0	514	1	0	0	
10	0	0	0	0	513	0	0	0	
11	0	0	0	0	511	1	0	0	
12	0	0	0	0	510	1	0	0	
13	0	0	0	0	511	1	0	1	
14	0	0	0	0	510	1	0	0	
15	0	0	0	0	510	3	0	0	
0	0	0	0	0	508	1	0	0	
1	0	0	0	0	510	1	0	0	
2	0	0	0	0	510	0	0	0	
3	0	0	0	0	509	0	0	0	
4	0	0	0	0	512	1	0	0	
5	0	0	0	0	509	1	0	1	
6	0	0	0	0	511	1	0	0	
7	0	0	0	0	514	3	0	0	
8	0	0	0	0	514	1	0	0	
9	0	0	0	0	512	1	0	0	
10	0	0	0	0	513	0	0	0	
11	0	0	0	0	511	1	0	0	
12	0	0	0	0	514	1	0	0	
13	0	0	0	0	510	1	0	1	
14	0	0	0	0	510	1	0	0	
15	0	0	0	0	511	3	0	0	
0	0	0	0	0	512	1	0	0	
1	0	0	0	0	511	1	0	0	
2	0	0	0	0	510	1	0	0	
3	0	0	0	0	509	0	0	0	
4	0	0	0	0	511	1	0	0	
5	0	0	0	0	514	1	0	1	
6	0	0	0	0	510	1	0	0	
7	0	0	0	0	510	3	0	0	
8	0	0	0	0	513	1	0	0	
9	0	0	0	0	514	1	0	0	
10	0	0	0	0	512	1	0	0	
11	0	0	0	0	511	0	0	0	
12	0	0	0	0	511	1	0	0	
13	0	0	0	0	512	1	0	1	
14	0	0	0	0	514	1	0	0	
15	0	0	0	0	510	3	0	0	
0	0	0	0	0	510	1	0	0	
1	0	0	0	0	511	1	0	0	
2	0	0	0	0	510	1	0	0	
3	0	0	0	0	510	1	0	0	
4	0	0	0	0	509	1	0	0	
5	0	0	0	0	511	0	0	1	
6	0	0	0	0	511	1	0	0	
7	0	0	0	0	513	3	0	0	
8	0	0	0	0	512	1	0	0	
9	0	0	0	0	514	1	0	0	
10	0	0	0	0	512	1	0	0	
11	0	0	0	0	512	1	0	0	
12	0	0	0	0	515	1	0	0	
13	0	0	0	0	511	0	0	1	
14	0	0	0	0	510	1	0	0	
15	0	0	0	0	510	3	0	0	
0	0	0	0	0	513	1	0	0	
1	0	0	0	0	508	1	0	0	
2	0	0	0	0	509	1	0	0	
3	0	0	0	0	511	0	0	0	
4	0	0	0	0	509	1	0	0	
5	0	0	0	0	510	0	0	1	
6	0	0	0	0	510	1	0	0	
7	0	0	0	0	510	3	0	0	
8	0	0	0	0	512	1	0	0	
9	0	0	0	0	512	1	0	0	
10	0	0	0	0	511	1	0	0	
11	0	0	0	0	512	1	0	0	
12	0	0	0	0	513	1	0	0	
13	0	0	0	0	514	1	0	1	
14	0	0	0	0	513	1	0	0	
15	0	0	0	0	512	1	0	0	
0	0	0	0	0	512	1	0	0	
1	0	0	0	0	511	1	0	0	
2	0	0	0	0	510	1	0	0	
3	0	0	0	0	508	1	0	0	
4	0	0	0	0	509	1	0	0	
5	0	0	0	0	511	1	0	1	
6	0	0	0	0	510	1	0	0	
7	0	0	0	0	511	1	0	0	
8	0	0	0	0	511	1	0	0	
9	0	0	0	0	511	1	0	0	
10	0	0	0	0	512	1	0	0	
11	0	0	0	0	514	0	0	0	
12	0	0	0	0	514	1	0	0	
13	0	0	0	0	512	1	0	1	
14	0	0	0	0	512	1	0	0	
15	0	0	0	0	511	3	0	0	
0	0	0	0	0	512	1	0	0	
1	0	0	0	0	512	1	0	0	
2	0	0	0	0	512	1	0	0	
3	0	0	0	0	510	1	0	0	
4	0	0	0	0	510	1	0	0	
5	0	0	0	0	509	0	0	1	
6	0	0	0	0	508	1	0	0	
7	0	0	0	0	509	3	0	0	
8	0	0	0	0	509	1	0	0	
9	0	0	0	0	510	1	0	0	
10	0	0	0	0	511	1	0	0	
11	0	0	0	0	513	1	0	0	
12	0	0	0	0	514	1	0	0	
13	0	0	0	0	514	0	0	1	
14	0	0	0	0	512	1	0	0	
15	0	0	0	0	512	3	0	0	
0	0	0	0	0	511	1	0	0	
1	0	0	0	0	513	1	0	0	
2	0	0	0	0	511	1	0	0	
3	0	0	0	0	511	1	0	0	
4	0	0	0	0	508	1	0	0	
5	0	0	0	0	511	1	0	1	
6	0	0	0	0	511	1	0	0	
7	0	0	0	0	510	3	0	0	
8	0	0	0	0	511	1	0	0	
9	0	0	0	0	511	1	0	0	
10	0	0	0	0	511	1	0	0	
11	0	0	0	0	512	0	0	0	
12	0	0	0	0	511	1	0	0	
13	0	0	0	0	512	1	0	1	
14	0	0	0	0	513	1	0	0	
15	0	0	0	0	511	3	0	0	
0	0	0	0	0	514	1	0	0	
1	0	0	0	0	513	1	0	0	
2	0	0	0	0	513	1	0	0	
3	0	0	0	0	511	0	0	0	
4	0	0	0	0	511	1	0	0	
5	0	0	0	0	511	1	0	1	
6	0	0	0	0	510	1	0	0	
7	0	0	0	0	512	3	0	0	
8	0	0	0	0	511	1	0	0	
9	0	0	0	0	512	1	0	0	
10	0	0	0	0	509	0	0	0	
11	0	0	0	0	513	0	0	0	
12	0	0	0	0	513	1	0	0	
13	0	0	0	0	511	1	0	1	
14	0	0	0	0	513	1	0	0	
15	0	0	0	0	511	3	0	0	
0	0	0	0	0	512	1	0	0	
1	0	0	0	0	510	1	0	0	
2	0	0	0	0	512	0	0	0	
3	0	0	0	0	513	0	0	0	
4	0	0	0	0	511	1	0	0	
5	0	0	0	0	511	1	0	1	
6	0	0	0	0	508	1	0	0	
7	0	0	0	0	509	3	0	0	
8	0	0	0	0	509	1	0	0	
9	0	0	0	0	511	1	0	0	
10	0	0	0	0	512	0	0	0	
11	0	0	0	0	509	1	0	0	
12	0	0	0	0	511	1	0	0	
13	0	0	0	0	514	1	0	1	
14	0	0	0	0	514	1	0	0	
15	0	0	0	0	513	3	0	0	
0	0	0	0	0	512	1	0	0	
1	0	0	0	0	511	1	0	0	
2	0	0	0	0	513	1	0	0	
3	0	0	0	0	511	1	0	0	
4	0	0	0	0	508	1	0	0	
5	0	0	0	0	509	1	0	1	
6	0	0	0	0	510	1	0	0	
7	0	0	0	0	511	3	0	0	
8	0	0	0	0	512	1	0	0	
9	0	0	0	0	509	1	0	0	
10	0	0	0	0	509	1	0	0	
11	0	0	0	0	510	1	0	0	
12	0	0	0	0	512	1	0	0	
13	0	0	0	0	512	1	0	1	
14	0	0	0	0	513	1	0	0	
15	0	0	0	0	511	3	0	0	
0	0	0	0	0	511	1	0	0	
1	0	0	0	0	511	1	0	0	
2	0	0	0	0	512	1	0	0	
3	0	0	0	0	512	1	0	0	
4	0	0	0	0	513	1	0	0	
5	0	0	0	0	511	1	0	1	
6	0	0	0	0	510	1	0	0	
7	0	0	0	0	508	1	0	0	
8	0	0	0	0	510	1	0	0	
9	0	0	0	0	512	1	0	0	
10	0	0	0	0	510	1	0	0	
11	0	0	0	0	511	1	0	0	
12	0	0	0	0	510	1	0	0	
13	0	0	0	0	513	1	0	1	
14	0	0	0	0	510	1	0	0	
15	0	0	0	0	511	1	0	0	
0	0	0	0	0	512	1	0	0	
1	0	0	0	0	512	1	0	0	
2	0	0	0	0	512	1	0	0	
3	0	0	0	0	511	0	0	0	
4	0	0	0	0	513	1	0	0	
5	0	0	0	0	515	1	0	1	
6	0	0	0	0	512	1	0	0	
7	0	0	0	0	509	1	0	0	
8	0	0	0	0	509	1	0	0	
9	0	0	0	0	510	1	0	0	
10	0	0	0	0	510	1	0	0	
11	0	0	0	0	511	1	0	0	
12	0	0	0	0	512	1	0	0	
13	0	0	0	0	511	1	0	1	
14	0	0	0	0	512	1	0	0	
15	0	0	0	0	512	3	0	0	
0	0	0	0	0	511	1	0	0	
1	0	0	0	0	515	1	0	0	
2	0	0	0	0	512	1	0	0	
3	0	0	0	0	512	0	0	0	
4	0	0	0	0	511	1	0	0	
5	0	0	0	0	510	1	0	1	
6	0	0	0	0	510	1	0	0	
7	0	0	0	0	509	3	0	0	
8	0	0	0	0	508	0	0	0	
9	0	0	0	0	511	1	0	0	
10	0	0	0	0	510	1	0	0	
11	0	0	0	0	510	1	0	0	
12	0	0	0	0	511	1	0	0	
13	0	0	0	0	509	1	0	1	
14	0	0	0	0	511	1	0	0	
15	0	0	0	0	513	3	0	0	
0	0	0	0	0	513	1	0	0	
1	0	0	0	0	512	1	0	0	
2	0	0	0	0	513	0	0	0	
3	0	0	0	0	512	0	0	0	
4	0	0	0	0	511	1	0	0	
5	0	0	0	0	512	1	0	1	
6	0	0	0	0	512	1	0	0	
7	0	0	0	0	511	3	0	0	
8	0	0	0	0	510	1	0	0	
9	0	0	0	0	512	1	0	0	
10	0	0	0	0	510	0	0	0	
11	0	0	0	0	510	1	0	0	
12	0	0	0	0	511	1	0	0	
13	0	0	0	0	511	1	0	1	
14	0	0	0	0	510	1	0	0	
15	0	0	0	0	512	3	0	0	
0	0	0	0	0	512	1	0	0	
1	0	0	0	0	513	1	0	0	
2	0	0	0	0	514	0	0	0	
3	0	0	0	0	512	1	0	0	
4	0	0	0	0	511	1	0	0	
5	0	0	0	0	512	1	0	1	
6	0	0	0	0	514	1	0	0	
7	0	0	0	0	512	3	0	0	
8	0	0	0	0	512	1	0	0	
9	0	0	0	0	507	1	0	0	
10	0	0	0	0	508	1	0	0	
11	0	0	0	0	511	0	0	0	
12	0	0	0	0	511	1	0	0	
13	0	0	0	0	508	1	0	1	
14	0	0	0	0	510	1	0	0	
15	0	0	0	0	513	3	0	0	
0	0	0	0	0	514	1	0	0	
1	0	0	0	0	513	1	0	0	
2	0	0	0	0	511	1	0	0	
3	0	0	0	0	512	0	0	0	
4	0	0	0	0	512	1	0	0	
5	0	0	0	0	511	1	0	1	
6	0	0	0	0	509	1	0	0	
7	0	0	0	0	510	3	0	0	
8	0	0	0	0	515	1	0	0	
9	0	0	0	0	511	1	0	0	
10	0	0	0	0	510	1	0	0	
11	0	0	0	0	510	0	0	0	
12	0	0	0	0	508	1	0	0	
13	0	0	0	0	508	0	0	1	
14	0	0	0	0	512	1	0	0	
15	0	0	0	0	511	3	0	0	
0	0	0	0	0	513	1	0	0	
1	0	0	0	0	512	1	0	0	
2	0	0	0	0	512	1	0	0	
3	0	0	0	0	512	1	0	0	
4	0	0	0	0	511	1	0	0	
5	0	0	0	0	512	0	0	1	
6	0	0	0	0	512	1	0	0	
7	0	0	0	0	511	3	0	0	
8	0	0	0	0	511	1	0	0	
9	0	0	0	0	511	1	0	0	
10	0	0	0	0	511	1	0	0	
11	0	0	0	0	510	1	0	0	
12	0	0	0	0	510	1	0	0	
13	0	0	0	0	509	0	0	1	
14	0	0	0	0	510	1	0	0	
15	0	0	0	0	512	3	0	0	
0	0	0	0	0	513	1	0	0	
1	0	0	0	0	514	1	0	0	
2	0	0	0	0	513	1	0	0	
3	0	0	0	0	515	1	0	0	
4	0	0	0	0	512	1	0	0	
5	0	0	0	0	511	1	0	1	
6	0	0	0	0	512	1	0	0	
7	0	0	0	0	510	1	0	0	
8	0	0	0	0	514	1	0	0	
9	0	0	0	0	514	1	0	0	
10	0	0	0	0	510	1	0	0	
11	0	0	0	0	511	1	0	0	
12	0	0	0	0	510	1	0	0	
13	0	0	0	0	507	1	0	1	
14	0	0	0	0	510	1	0	0	
15	0	0	0	0	512	1	0	0	
0	0	0	0	0	514	1	0	0	
1	0	0	0	0	513	1	0	0	
2	0	0	0	0	512	1	0	0	
3	0	0	0	0	513	1	0	0	
4	0	0	0	0	512	1	0	0	
5	0	0	0	0	512	1	0	1	
6	0	0	0	0	513	1	0	0	
7	0	0	0	0	513	1	0	0	
8	0	0	0	0	512	1	0	0	
9	0	0	0	0	511	1	0	0	
10	0	0	0	0	509	1	0	0	
11	0	0	0	0	509	1	0	0	
12	0	0	0	0	509	1	0	0	
13	0	0	0	0	510	0	0	1	
14	0	0	0	0	511	1	0	0	
15	0	0	0	0	510	3	0	0	
0	0	0	0	0	511	1	0	0	
1	0	0	0	0	510	1	0	0	
2	0	0	0	0	510	1	0	0	
3	0	0	0	0	512	1	0	0	
4	0	0	0	0	511	1	0	0	
5	0	0	0	0	513	0	0	1	
6	0	0	0	0	512	1	0	0	
7	0	0	0	0	511	3	0	0	
8	0	0	0	0	512	1	0	0	
9	0	0	0	0	510	1	0	0	
10	0	0	0	0	513	1	0	0	
11	0	0	0	0	513	0	0	0	
12	0	0	0	0	512	1	0	0	
13	0	0	0	0	511	0	0	1	
14	0	0	0	0	510	1	0	0	
15	0	0	0	0	508	3	0	0	
0	0	0	0	0	511	1	0	0	
1	0	0	0	0	511	1	0	0	
2	0	0	0	0	511	1	0	0	
3	0	0	0	0	512	0	0	0	
4	0	0	0	0	514	1	0	0	
5	0	0	0	0	514	1	0	1	
6	0	0	0	0	514	1	0	0	
7	0	0	0	0	512	3	0	0	
8	0	0	0	0	513	1	0	0	
9	0	0	0	0	512	1	0	0	
10	0	0	0	0	511	1	0	0	
11	0	0	0	0	512	0	0	0	
12	0	0	0	0	511	1	0	0	
13	0	0	0	0	510	1	0	1	
14	0	0	0	0	508	1	0	0	
15	0	0	0	0	509	3	0	0	
0	0	0	0	0	510	1	0	0	
1	0	0	0	0	508	1	0	0	
2	0	0	0	0	512	1	0	0	
3	0	0	0	0	511	0	0	0	
4	0	0	0	0	511	1	0	0	
5	0	0	0	0	513	1	0	1	
6	0	0	0	0	513	1	0	0	
7	0	0	0	0	510	3	0	0	
8	0	0	0	0	515	1	0	0	
9	0	0	0	0	511	1	0	0	
10	0	0	0	0	513	0	0	0	
11	0	0	0	0	512	1	0	0	
12	0	0	0	0	512	1	0	0	
13	0	0	0	0	511	1	0	1	
14	0	0	0	0	509	1	0	0	
15	0	0	0	0	508	3	0	0	
0	0	0	0	0	512	1	0	0	
1	0	0	0	0	512	1	0	0	
2	0	0	0	0	511	0	0	0	
3	0	0	0	0	512	1	0	0	
4	0	0	0	0	512	1	0	0	
5	0	0	0	0	512	1	0	1	
6	0	0	0	0	513	1	0	0	
7	0	0	0	0	513	3	0	0	
8	0	0	0	0	512	1	0	0	
9	0	0	0	0	510	1	0	0	
10	0	0	0	0	511	1	0	0	
11	0	0	0	0	513	0	0	0	
12	0	0	0	0	511	1	0	0	
13	0	0	0	0	510	1	0	1	
14	0	0	0	0	510	1	0	0	
15	0	0	0	0	508	3	0	0	
0	0	0	0	0	511	0	0	0	
1	0	0	0	0	513	1	0	0	
2	0	0	0	0	511	1	0	0	
3	0	0	0	0	510	1	0	0	
4	0	0	0	0	512	1	0	0	
5	0	0	0	0	511	1	0	1	
6	0	0	0	0	512	1	0	0	
7	0	0	0	0	512	3	0	0	
8	0	0	0	0	512	0	0	0	
9	0	0	0	0	511	1	0	0	
10	0	0	0	0	511	1	0	0	
11	0	0	0	0	512	1	0	0	
12	0	0	0	0	511	1	0	0	
13	0	0	0	0	512	1	0	1	
14	0	0	0	0	512	1	0	0	
15	0	0	0	0	511	3	0	0	
0	0	0	0	0	510	1	0	0	
1	0	0	0	0	508	1	0	0	
2	0	0	0	0	511	1	0	0	
3	0	0	0	0	511	1	0	0	
4	0	0	0	0	510	1	0	0	
5	0	0	0	0	514	1	0	1	
6	0	0	0	0	511	1	0	0	
7	0	0	0	0	513	1	0	0	
8	0	0	0	0	514	1	0	0	
9	0	0	0	0	510	1	0	0	
10	0	0	0	0	513	1	0	0	
11	0	0	0	0	512	0	0	0	
12	0	0	0	0	511	1	0	0	
13	0	0	0	0	511	1	0	1	
14	0	0	0	0	510	1	0	0	
15	0	0	0	0	510	1	0	0	
0	0	0	0	0	507	1	0	0	
1	0	0	0	0	510	1	0	0	
2	0	0	0	0	510	1	0	0	
3	0	0	0	0	511	0	0	0	
4	0	0	0	0	510	1	0	0	
5	0	0	0	0	511	1	0	1	
6	0	0	0	0	511	1	0	0	
7	0	0	0	0	513	3	0	0	
8	0	0	0	0	513	0	0	0	
9	0	0	0	0	511	1	0	0	
10	0	0	0	0	510	1	0	0	
11	0	0	0	0	512	0	0	0	
12	0	0	0	0	511	1	0	0	
13	0	0	0	0	512	1	0	1	
14	0	0	0	0	511	1	0	0	
15	0	0	0	0	512	3	0	0	
0	0	0	0	0	512	0	0	0	
1	0	0	0	0	508	1	0	0	
2	0	0	0	0	510	1	0	0	
3	0	0	0	0	510	1	0	0	
4	0	0	0	0	511	1	0	0	
5	0	0	0	0	512	1	0	1	
6	0	0	0	0	513	1	0	0	
7	0	0	0	0	513	3	0	0	
8	0	0	0	0	512	0	0	0	
9	0	0	0	0	512	1	0	0	
10	0	0	0	0	512	1	0	0	
11	0	0	0	0	511	1	0	0	
12	0	0	0	0	511	1	0	0	
13	0	0	0	0	511	1	0	1	
14	0	0	0	0	513	1	0	0	
15	0	0	0	0	510	3	0	0	
0	0	0	0	0	509	1	0	0	
1	0	0	0	0	508	1	0	0	
2	0	0	0	0	508	0	0	0	
3	0	0	0	0	512	0	0	0	
4	0	0	0	0	512	1	0	0	
5	0	0	0	0	511	1	0	1	
6	0	0	0	0	511	1	0	0	
7	0	0	0	0	512	3	0	0	
8	0	0	0	0	512	1	0	0	
9	0	0	0	0	512	1	0	0	
10	0	0	0	0	513	0	0	0	
11	0	0	0	0	512	1	0	0	
12	0	0	0	0	509	1	0	0	
13	0	0	0	0	510	1	0	1	
14	0	0	0	0	510	1	0	0	
15	0	0	0	0	510	3	0	0	
0	0	0	0	0	511	1	0	0	
1	0	0	0	0	512	1	0	0	
2	0	0	0	0	512	1	0	0	
3	0	0	0	0	513	0	0	0	
4	0	0	0	0	511	1	0	0	
5	0	0	0	0	513	1	0	1	
6	0	0	0	0	513	1	0	0	
7	0	0	0	0	511	3	0	0	
8	0	0	0	0	512	1	0	0	
9	0	0	0	0	512	1	0	0	
10	0	0	0	0	513	1	0	0	
11	0	0	0	0	511	0	0	0	
12	0	0	0	0	510	1	0	0	
13	0	0	0	0	511	1	0	1	
14	0	0	0	0	510	1	0	0	
15	0	0	0	0	510	3	0	0	
0	0	0	0	0	511	1	0	0	
1	0	0	0	0	512	1	0	0	
2	0	0	0	0	507	1	0	0	
3	0	0	0	0	511	0	0	0	
4	0	0	0	0	511	1	0	0	
5	0	0	0	0	511	1	0	1	
6	0	0	0	0	509	1	0	0	
7	0	0	0	0	511	3	0	0	
8	0	0	0	0	511	1	0	0	
9	0	0	0	0	511	1	0	0	
10	0	0	0	0	511	1	0	0	
11	0	0	0	0	511	0	0	0	
12	0	0	0	0	513	1	0	0	
13	0	0	0	0	511	0	0	1	
14	0	0	0	0	513	1	0	0	
15	0	0	0	0	511	3	0	0	
0	0	0	0	0	511	1	0	0	
1	0	0	0	0	511	1	0	0	
2	0	0	0	0	510	1	0	0	
3	0	0	0	0	510	0	0	0	
4	0	0	0	0	511	1	0	0	
5	0	0	0	0	511	0	0	1	
6	0	0	0	0	510	1	0	0	
7	0	0	0	0	511	3	0	0	
8	0	0	0	0	511	1	0	0	
9	0	0	0	0	514	1	0	0	
10	0	0	0	0	513	1	0	0	
11	0	0	0	0	512	1	0	0	
12	0	0	0	0	512	1	0	0	
13	0	0	0	0	510	1	0	1	
14	0	0	0	0	512	1	0	0	
15	0	0	0	0	512	1	0	0	
0	0	0	0	0	511	1	0	0	
1	0	0	0	0	511	1	0	0	
2	0	0	0	0	510	1	0	0	
3	0	0	0	0	509	1	0	0	
4	0	0	0	0	509	1	0	0	
5	0	0	0	0	510	1	0	1	
6	0	0	0	0	509	1	0	0	
7	0	0	0	0	513	1	0	0	
8	0	0	0	0	512	1	0	0	
9	0	0	0	0	512	1	0	0	
10	0	0	0	0	513	1	0	0	
11	0	0	0	0	511	0	0	0	
12	0	0	0	0	513	1	0	0	
13	0	0	0	0	515	1	0	1	
14	0	0	0	0	512	1	0	0	
15	0	0	0	0	510	1	0	0	
0	0	0	0	0	510	1	0	0	
1	0	0	0	0	511	1	0	0	
2	0	0	0	0	511	1	0	0	
3	0	0	0	0	511	1	0	0	
4	0	0	0	0	511	1	0	0	
5	0	0	0	0	509	0	0	1	
6	0	0	0	0	510	1	0	0	
7	0	0	0	0	510	3	0	0	
8	0	0	0	0	513	1	0	0	
9	0	0	0	0	512	1	0	0	
10	0	0	0	0	512	1	0	0	
11	0	0	0	0	512	1	0	0	
12	0	0	0	0	509	1	0	0	
13	0	0	0	0	511	0	0	1	
14	0	0	0	0	512	1	0	0	
15	0	0	0	0	514	3	0	0	
0	0	0	0	0	512	1	0	0	
1	0	0	0	0	510	1	0	0	
2	0	0	0	0	511	1	0	0	
3	0	0	0	0	512	1	0	0	
4	0	0	0	0	510	1	0	0	
5	0	0	0	0	509	0	0	1	
6	0	0	0	0	511	1	0	0	
7	0	0	0	0	512	3	0	0	
8	0	0	0	0	515	1	0	0	
9	0	0	0	0	513	1	0	0	
10	0	0	0	0	514	1	0	0	
11	0	0	0	0	513	0	0	0	
12	0	0	0	0	512	1	0	0	
13	0	0	0	0	513	1	0	1	
14	0	0	0	0	511	1	0	0	
15	0	0	0	0	509	3	0	0	
0	0	0	0	0	508	1	0	0	
1	0	0	0	0	510	1	0	0	
2	0	0	0	0	509	1	0	0	
3	0	0	0	0	509	0	0	0	
4	0	0	0	0	512	1	0	0	
5	0	0	0	0	509	1	0	1	
6	0	0	0	0	511	1	0	0	
7	0	0	0	0	512	3	0	0	
8	0	0	0	0	511	1	0	0	
9	0	0	0	0	513	1	0	0	
10	0	0	0	0	511	1	0	0	
11	0	0	0	0	513	0	0	0	
12	0	0	0	0	511	1	0	0	
13	0	0	0	0	512	1	0	1	
14	0	0	0	0	512	1	0	0	
15	0	0	0	0	512	3	0	0	
0	0	0	0	0	511	1	0	0	
1	0	0	0	0	513	1	0	0	
2	0	0	0	0	513	0	0	0	
3	0	0	0	0	509	1	0	0	
4	0	0	0	0	510	1	0	0	
5	0	0	0	0	509	1	0	1	
6	0	0	0	0	510	1	0	0	
7	0	0	0	0	510	3	0	0	
8	0	0	0	0	510	1	0	0	
9	0	0	0	0	509	1	0	0	
10	0	0	0	0	509	0	0	0	
11	0	0	0	0	509	1	0	0	
12	0	0	0	0	509	1	0	0	
13	0	0	0	0	511	1	0	1	
14	0	0	0	0	514	1	0	0	
15	0	0	0	0	515	3	0	0	
0	0	0	0	0	516	1	0	0	
1	0	0	0	0	514	1	0	0	
2	0	0	0	0	514	0	0	0	
3	0	0	0	0	512	1	0	0	
4	0	0	0	0	507	1	0	0	
5	0	0	0	0	507	1	0	1	
6	0	0	0	0	508	1	0	0	
7	0	0	0	0	512	3	0	0	
8	0	0	0	0	512	0	0	0	
9	0	0	0	0	513	1	0	0	
10	0	0	0	0	512	1	0	0	
11	0	0	0	0	517	1	0	0	
12	0	0	0	0	514	1	0	0	
13	0	0	0	0	515	1	0	1	
14	0	0	0	0	512	1	0	0	
15	0	0	0	0	510	3	0	0	
0	0	0	0	0	508	0	0	0	
1	0	0	0	0	506	1	0	0	
2	0	0	0	0	507	1	0	0	
3	0	0	0	0	506	0	0	0	
4	0	0	0	0	500	1	0	0	
5	0	0	0	0	502	1	0	1	
6	0	0	0	0	511	1	0	0	
7	0	0	0	0	515	3	0	0	
8	0	0	0	0	518	1	0	0	
9	0	0	0	0	526	1	0	0	
10	0	0	0	0	524	1	0	0	
11	0	0	0	0	516	1	0	0	
12	0	0	0	0	517	1	0	0	
13	0	0	0	0	515	1	0	1	
14	0	0	0	0	511	1	0	0	
15	0	0	0	0	507	1	0	0	
0	0	0	0	0	509	1	0	0	
1	0	0	0	0	506	1	0	0	
2	0	0	0	0	508	1	0	0	
3	0	0	0	0	505	0	0	0	
4	0	0	0	0	509	1	0	0	
5	0	0	0	0	511	1	0	1	
6	0	0	0	0	510	1	0	0	
7	0	0	0	0	512	1	0	0	
8	0	0	0	0	513	1	0	0	
9	0	0	0	0	511	1	0	0	
10	0	0	0	0	511	1	0	0	
11	0	0	0	0	511	0	0	0	
12	0	0	0	0	511	1	0	0	
13	0	0	0	0	511	1	0	1	
14	0	0	0	0	508	1	0	0	
15	0	0	0	0	508	1	0	0	
0	0	0	0	0	510	0	0	0	
1	0	0	0	0	515	1	0	0	
2	0	0	0	0	515	1	0	0	
3	0	0	0	0	516	1	0	0	
4	0	0	0	0	516	1	0	0	
5	0	0	0	0	516	1	0	1	
6	0	0	0	0	509	1	0	0	
7	0	0	0	0	509	3	0	0	
8	0	0	0	0	511	0	0	0	
9	0	0	0	0	510	1	0	0	
10	0	0	0	0	510	1	0	0	
11	0	0	0	0	511	1	0	0	
12	0	0	0	0	511	1	0	0	
13	0	0	0	0	511	1	0	1	
14	0	0	0	0	510	1	0	0	
15	0	0	0	0	511	3	0	0	
0	0	0	0	0	510	1	0	0	
1	0	0	0	0	511	1	0	0	
2	0	0	0	0	509	1	0	0	
3	0	0	0	0	511	1	0	0	
4	0	0	0	0	510	1	0	0	
5	0	0	0	0	509	1	0	1	
6	0	0	0	0	511	1	0	0	
7	0	0	0	0	510	3	0	0	
8	0	0	0	0	512	1	0	0	
9	0	0	0	0	512	1	0	0	
10	0	0	0	0	515	0	0	0	
11	0	0	0	0	514	0	0	0	
12	0	0	0	0	513	1	0	0	
13	0	0	0	0	514	1	0	1	
14	0	0	0	0	513	1	0	0	
15	0	0	0	0	513	3	0	0	
0	0	0	0	0	513	1	0	0	
1	0	0	0	0	510	1	0	0	
2	0	0	0	0	509	0	0	0	
3	0	0	0	0	510	1	0	0	
4	0	0	0	0	510	1	0	0	
5	0	0	0	0	508	1	0	1	
6	0	0	0	0	510	1	0	0	
7	0	0	0	0	511	3	0	0	
8	0	0	0	0	512	1	0	0	
9	0	0	0	0	515	1	0	0	
10	0	0	0	0	512	0	0	0	
11	0	0	0	0	508	1	0	0	
12	0	0	0	0	510	1	0	0	
13	0	0	0	0	510	1	0	1	
14	0	0	0	0	512	1	0	0	
15	0	0	0	0	512	3	0	0	
0	0	0	0	0	513	1	0	0	
1	0	0	0	0	514	1	0	0	
2	0	0	0	0	512	1	0	0	
3	0	0	0	0	511	0	0	0	
4	0	0	0	0	513	1	0	0	
5	0	0	0	0	510	1	0	1	
6	0	0	0	0	510	1	0	0	
7	0	0	0	0	510	3	0	0	
8	0	0	0	0	510	1	0	0	
9	0	0	0	0	510	1	0	0	
10	0	0	0	0	511	1	0	0	
11	0	0	0	0	512	0	0	0	
12	0	0	0	0	509	1	0	0	
13	0	0	0	0	512	1	0	1	
14	0	0	0	0	513	1	0	0	
15	0	0	0	0	511	3	0	0	
0	0	0	0	0	511	1	0	0	
1	0	0	0	0	512	1	0	0	
2	0	0	0	0	511	1	0	0	
3	0	0	0	0	508	1	0	0	
4	0	0	0	0	511	1	0	0	
5	0	0	0	0	512	0	0	1	
6	0	0	0	0	510	1	0	0	
7	0	0	0	0	514	3	0	0	
8	0	0	0	0	512	1	0	0	
9	0	0	0	0	510	1	0	0	
10	0	0	0	0	511	1	0	0	
11	0	0	0	0	509	1	0	0	
12	0	0	0	0	512	1	0	0	
13	0	0	0	0	514	0	0	1	
14	0	0	0	0	511	1	0	0	
15	0	0	0	0	512	3	0	0	
0	0	0	0	0	514	1	0	0	
1	0	0	0	0	511	1	0	0	
2	0	0	0	0	512	1	0	0	
3	0	0	0	0	511	1	0	0	
4	0	0	0	0	512	1	0	0	
5	0	0	0	0	510	0	0	1	
6	0	0	0	0	511	1	0	0	
7	0	0	0	0	511	1	0	0	
8	0	0	0	0	510	1	0	0	
9	0	0	0	0	511	1	0	0	
10	0	0	0	0	511	1	0	0	
11	0	0	0	0	511	0	0	0	
12	0	0	0	0	510	1	0	0	
13	0	0	0	0	510	1	0	1	
14	0	0	0	0	511	1	0	0	
15	0	0	0	0	511	1	0	0	
0	0	0	0	0	512	1	0	0	
1	0	0	0	0	510	1	0	0	
2	0	0	0	0	510	1	0	0	
3	0	0	0	0	512	1	0	0	
4	0	0	0	0	512	1	0	0	
5	0	0	0	0	513	1	0	1	
6	0	0	0	0	513	1	0	0	
7	0	0	0	0	512	1	0	0	
8	0	0	0	0	512	1	0	0	
9	0	0	0	0	511	1	0	0	
10	0	0	0	0	509	1	0	0	
11	0	0	0	0	509	0	0	0	
12	0	0	0	0	512	1	0	0	
13	0	0	0	0	512	0	0	1	
14	0	0	0	0	512	1	0	0	
15	0	0	0	0	512	3	0	0	
0	0	0	0	0	512	1	0	0	
1	0	0	0	0	510	1	0	0	
2	0	0	0	0	510	1	0	0	
3	0	0	0	0	512	1	0	0	
4	0	0	0	0	511	1	0	0	
5	0	0	0	0	511	0	0	1	
6	0	0	0	0	510	1	0	0	
7	0	0	0	0	510	3	0	0	
8	0	0	0	0	510	1	0	0	
9	0	0	0	0	509	1	0	0	
10	0	0	0	0	511	1	0	0	
11	0	0	0	0	513	1	0	0	
12	0	0	0	0	510	1	0	0	
13	0	0	0	0	512	0	0	1	
14	0	0	0	0	512	1	0	0	
15	0	0	0	0	513	3	0	0	
0	0	0	0	0	512	1	0	0	
1	0	0	0	0	512	1	0	0	
2	0	0	0	0	513	1	0	0	
3	0	0	0	0	511	0	0	0	
4	0	0	0	0	511	1	0	0	
5	0	0	0	0	511	1	0	1	
6	0	0	0	0	512	1	0	0	
7	0	0	0	0	511	3	0	0	
8	0	0	0	0	510	1	0	0	
9	0	0	0	0	511	1	0	0	
10	0	0	0	0	511	1	0	0	
11	0	0	0	0	512	0	0	0	
12	0	0	0	0	511	1	0	0	
13	0	0	0	0	510	1	0	1	
14	0	0	0	0	514	1	0	0	
15	0	0	0	0	512	3	0	0	
0	0	0	0	0	512	1	0	0	
1	0	0	0	0	512	1	0	0	
2	0	0	0	0	513	1	0	0	
3	0	0	0	0	510	0	0	0	
4	0	0	0	0	511	1	0	0	
5	0	0	0	0	509	1	0	1	
6	0	0	0	0	510	1	0	0	
7	0	0	0	0	512	3	0	0	
8	0	0	0	0	512	1	0	0	
9	0	0	0	0	511	1	0	0	
10	0	0	0	0	511	0	0	0	
11	0	0	0	0	511	1	0	0	
12	0	0	0	0	510	1	0	0	
13	0	0	0	0	512	1	0	1	
14	0	0	0	0	511	1	0	0	
15	0	0	0	0	511	3	0	0	
0	0	0	0	0	510	1	0	0	
1	0	0	0	0	510	1	0	0	
2	0	0	0	0	511	0	0	0	
3	0	0	0	0	509	1	0	0	
4	0	0	0	0	510	1	0	0	
5	0	0	0	0	512	1	0	1	
6	0	0	0	0	512	1	0	0	
7	0	0	0	0	511	3	0	0	
8	0	0	0	0	514	1	0	0	
9	0	0	0	0	514	1	0	0	
10	0	0	0	0	513	0	0	0	
11	0	0	0	0	511	1	0	0	
12	0	0	0	0	510	1	0	0	
13	0	0	0	0	512	1	0	1	
14	0	0	0	0	512	1	0	0	
15	0	0	0	0	511	3	0	0	
0	0	0	0	0	511	0	0	0	
1	0	0	0	0	512	1	0	0	
2	0	0	0	0	512	1	0	0	
3	0	0	0	0	510	0	0	0	
4	0	0	0	0	509	1	0	0	
5	0	0	0	0	512	1	0	1	
6	0	0	0	0	512	1	0	0	
7	0	0	0	0	511	3	0	0	
8	0	0	0	0	509	0	0	0	
9	0	0	0	0	510	1	0	0	
10	0	0	0	0	511	1	0	0	
11	0	0	0	0	512	0	0	0	
12	0	0	0	0	512	1	0	0	
13	0	0	0	0	511	1	0	1	
14	0	0	0	0	512	1	0	0	
15	0	0	0	0	512	3	0	0	
0	0	0	0	0	512	1	0	0	
1	0	0	0	0	512	1	0	0	
2	0	0	0	0	510	1	0	0	
3	0	0	0	0	511	0	0	0	
4	0	0	0	0	511	1	0	0	
5	0	0	0	0	512	1	0	1	
6	0	0	0	0	511	1	0	0	
7	0	0	0	0	512	1	0	0	
8	0	0	0	0	512	1	0	0	
9	0	0	0	0	512	1	0	0	
10	0	0	0	0	512	1	0	0	
11	0	0	0	0	513	1	0	0	
12	0	0	0	0	510	1	0	0	
13	0	0	0	0	510	1	0	1	
14	0	0	0	0	510	1	0	0	
15	0	0	0	0	511	1	0	0	
0	0	0	0	0	511	1	0	0	
1	0	0	0	0	512	1	0	0	
2	0	0	0	0	512	1	0	0	
3	0	0	0	0	512	1	0	0	
4	0	0	0	0	509	1	0	0	
5	0	0	0	0	509	1	0	1	
6	0	0	0	0	509	1	0	0	
7	0	0	0	0	510	1	0	0	
8	0	0	0	0	512	1	0	0	
9	0	0	0	0	514	1	0	0	
10	0	0	0	0	512	1	0	0	
11	0	0	0	0	511	1	0	0	
12	0	0	0	0	511	1	0	0	
13	0	0	0	0	512	1	0	1	
14	0	0	0	0	512	1	0	0	
15	0	0	0	0	512	3	0	0	
0	0	0	0	0	510	0	0	0	
1	0	0	0	0	512	1	0	0	
2	0	0	0	0	510	1	0	0	
3	0	0	0	0	511	0	0	0	
4	0	0	0	0	510	1	0	0	
5	0	0	0	0	508	1	0	1	
6	0	0	0	0	512	1	0	0	
7	0	0	0	0	513	3	0	0	
8	0	0	0	0	513	0	0	0	
9	0	0	0	0	513	1	0	0	
10	0	0	0	0	511	1	0	0	
11	0	0	0	0	512	0	0	0	
12	0	0	0	0	510	1	0	0	
13	0	0	0	0	513	1	0	1	
14	0	0	0	0	512	1	0	0	
15	0	0	0	0	512	3	0	0	
0	0	0	0	0	510	1	0	0	
1	0	0	0	0	509	1	0	0	
2	0	0	0	0	510	0	0	0	
3	0	0	0	0	510	1	0	0	
4	0	0	0	0	510	1	0	0	
5	0	0	0	0	511	1	0	1	
6	0	0	0	0	511	1	0	0	
7	0	0	0	0	513	3	0	0	
8	0	0	0	0	515	1	0	0	
9	0	0	0	0	514	1	0	0	
10	0	0	0	0	513	0	0	0	
11	0	0	0	0	512	0	0	0	
12	0	0	0	0	510	1	0	0	
13	0	0	0	0	507	1	0	1	
14	0	0	0	0	509	1	0	0	
15	0	0	0	0	509	3	0	0	
0	0	0	0	0	512	1	0	0	
1	0	0	0	0	510	1	0	0	
2	0	0	0	0	512	0	0	0	
3	0	0	0	0	513	1	0	0	
4	0	0	0	0	512	1	0	0	
5	0	0	0	0	510	1	0	1	
6	0	0	0	0	509	1	0	0	
7	0	0	0	0	508	3	0	0	
8	0	0	0	0	508	1	0	0	
9	0	0	0	0	510	1	0	0	
10	0	0	0	0	512	1	0	0	
11	0	0	0	0	512	0	0	0	
12	0	0	0	0	513	1	0	0	
13	0	0	0	0	514	1	0	1	
14	0	0	0	0	511	1	0	0	
15	0	0	0	0	514	3	0	0	
0	0	0	0	0	512	1	0	0	
1	0	0	0	0	511	1	0	0	
2	0	0	0	0	511	1	0	0	
3	0	0	0	0	512	0	0	0	
4	0	0	0	0	511	1	0	0	
5	0	0	0	0	506	1	0	1	
6	0	0	0	0	504	1	0	0	
7	0	0	0	0	507	3	0	0	
8	0	0	0	0	511	1	0	0	
9	0	0	0	0	515	1	0	0	
10	0	0	0	0	518	1	0	0	
11	0	0	0	0	522	0	0	0	
12	0	0	0	0	521	1	0	0	
13	0	0	0	0	519	0	0	1	
14	0	0	0	0	515	1	0	0	
15	0	0	0	0	513	3	0	0	
0	0	0	0	0	510	1	0	0	
1	0	0	0	0	506	1	0	0	
2	0	0	0	0	505	1	0	0	
3	0	0	0	0	509	0	0	0	
4	0	0	0	0	509	1	0	0	
5	0	0	0	0	508	0	0	1	
6	0	0	0	0	506	1	0	0	
7	0	0	0	0	509	3	0	0	
8	0	0	0	0	511	1	0	0	
9	0	0	0	0	509	1	0	0	
10	0	0	0	0	508	1	0	0	
11	0	0	0	0	511	1	0	0	
12	0	0	0	0	510	1	0	0	
13	0	0	0	0	510	0	0	1	
14	0	0	0	0	511	1	0	0	
15	0	0	0	0	512	3	0	0	
0	0	0	0	0	515	1	0	0	
1	0	0	0	0	514	1	0	0	
2	0	0	0	0	513	1	0	0	
3	0	0	0	0	512	1	0	0	
4	0	0	0	0	510	1	0	0	
5	0	0	0	0	510	1	0	1	
6	0	0	0	0	510	1	0	0	
7	0	0	0	0	509	1	0	0	
8	0	0	0	0	512	1	0	0	
9	0	0	0	0	514	1	0	0	
10	0	0	0	0	512	1	0	0	
11	0	0	0	0	512	1	0	0	
12	0	0	0	0	510	1	0	0	
13	0	0	0	0	510	1	0	1	
14	0	0	0	0	511	1	0	0	
15	0	0	0	0	512	1	0	0	
0	0	0	0	0	512	1	0	0	
1	0	0	0	0	514	1	0	0	
2	0	0	0	0	514	1	0	0	
3	0	0	0	0	512	1	0	0	
4	0	0	0	0	509	1	0	0	
5	0	0	0	0	506	1	0	1	
6	0	0	0	0	506	1	0	0	
7	0	0	0	0	505	1	0	0	
8	0	0	0	0	507	1	0	0	
9	0	0	0	0	511	1	0	0	
10	0	0	0	0	515	1	0	0	
11	0	0	0	0	517	1	0	0	
12	0	0	0	0	521	1	0	0	
13	0	0	0	0	521	0	0	1	
14	0	0	0	0	515	1	0	0	
15	0	0	0	0	507	3	0	0	
0	0	0	0	0	508	1	0	0	
1	0	0	0	0	513	1	0	0	
2	0	0	0	0	512	1	0	0	
3	0	0	0	0	507	1	0	0	
4	0	0	0	0	505	1	0	0	
5	0	0	0	0	508	0	0	1	
6	0	0	0	0	510	1	0	0	
7	0	0	0	0	511	3	0	0	
8	0	0	0	0	513	1	0	0	
9	0	0	0	0	507	1	0	0	
10	0	0	0	0	508	1	0	0	
11	0	0	0	0	508	1	0	0	
12	0	0	0	0	507	1	0	0	
13	0	0	0	0	514	1	0	1	
14	0	0	0	0	523	1	0	0	
15	0	0	0	0	517	3	0	0	
0	0	0	0	0	511	1	0	0	
1	0	0	0	0	511	1	0	0	
2	0	0	0	0	511	1	0	0	
3	0	0	0	0	509	0	0	0	
4	0	0	0	0	505	1	0	0	
5	0	0	0	0	511	1	0	1	
6	0	0	0	0	514	1	0	0	
7	0	0	0	0	502	3	0	0	
8	0	0	0	0	504	1	0	0	
9	0	0	0	0	500	1	0	0	
10	0	0	0	0	506	1	0	0	
11	0	0	0	0	516	0	0	0	
12	0	0	0	0	531	1	0	0	
13	0	0	0	0	528	1	0	1	
14	0	0	0	0	521	1	0	0	
15	0	0	0	0	516	3	0	0	
0	0	0	0	0	515	1	0	0	
1	0	0	0	0	509	1	0	0	
2	0	0	0	0	500	1	0	0	
3	0	0	0	0	505	0	0	0	
4	0	0	0	0	510	1	0	0	
5	0	0	0	0	502	1	0	1	
6	0	0	0	0	505	1	0	0	
7	0	0	0	0	506	3	0	0	
8	0	0	0	0	508	1	0	0	
9	0	0	0	0	511	1	0	0	
10	0	0	0	0	513	0	0	0	
11	0	0	0	0	512	0	0	0	
12	0	0	0	0	510	1	0	0	
13	0	0	0	0	505	1	0	1	
14	0	0	0	0	505	1	0	0	
15	0	0	0	0	504	3	0	0	
0	0	0	0	0	507	1	0	0	
1	0	0	0	0	511	1	0	0	
2	0	0	0	0	515	0	0	0	
3	0	0	0	0	516	1	0	0	
4	0	0	0	0	522	1	0	0	
5	0	0	0	0	524	1	0	1	
6	0	0	0	0	521	1	0	0	
7	0	0	0	0	518	3	0	0	
8	0	0	0	0	521	1	0	0	
9	0	0	0	0	513	1	0	0	
10	0	0	0	0	514	1	0	0	
11	0	0	0	0	514	1	0	0	
12	0	0	0	0	509	1	0	0	
13	0	0	0	0	505	1	0	1	
14	0	0	0	0	505	1	0	0	
15	0	0	0	0	503	3	0	0	
0	0	0	0	0	503	0	0	0	
1	0	0	0	0	509	1	0	0	
2	0	0	0	0	511	1	0	0	
3	0	0	0	0	512	1	0	0	
4	0	0	0	0	513	1	0	0	
5	0	0	0	0	506	1	0	1	
6	0	0	0	0	504	1	0	0	
7	0	0	0	0	511	3	0	0	
8	0	0	0	0	515	1	0	0	
9	0	0	0	0	519	1	0	0	
10	0	0	0	0	519	1	0	0	
11	0	0	0	0	517	1	0	0	
12	0	0	0	0	515	1	0	0	
13	0	0	0	0	507	1	0	1	
14	0	0	0	0	506	1	0	0	
15	0	0	0	0	503	1	0	0	
0	0	0	0	0	500	1	0	0	
1	0	0	0	0	495	1	0	0	
2	0	0	0	0	492	1	0	0	
3	0	0	0	0	500	0	0	0	
4	0	0	0	0	519	1	0	0	
5	0	0	0	0	525	1	0	1	
6	0	0	0	0	531	1	0	0	
7	0	0	0	0	529	2	0	0	
8	0	0	0	0	526	1	0	0	
9	0	0	0	0	517	1	0	0	
10	0	0	0	0	508	1	0	0	
11	0	0	0	0	508	0	0	0	
12	0	0	0	0	511	1	0	0	
13	0	0	0	0	517	1	0	1	
14	0	0	0	0	514	1	0	0	
15	0	0	0	0	512	1	0	0	
0	0	0	0	0	511	1	0	0	
1	0	0	0	0	504	1	0	0	
2	0	0	0	0	505	1	0	0	
3	0	0	0	0	508	0	0	0	
4	0	0	0	0	509	1	0	0	
5	0	0	0	0	508	1	0	1	
6	0	0	0	0	505	1	0	0	
7	0	0	0	0	506	3	0	0	
8	0	0	0	0	506	1	0	0	
9	0	0	0	0	505	1	0	0	
10	0	0	0	0	507	1	0	0	
11	0	0	0	0	502	0	0	0	
12	0	0	0	0	508	1	0	0	
13	0	0	0	0	520	1	0	1	
14	0	0	0	0	526	1	0	0	
15	0	0	0	0	522	3	0	0	
0	0	0	0	0	514	1	0	0	
1	0	0	0	0	512	1	0	0	
2	0	0	0	0	512	1	0	0	
3	0	0	0	0	509	0	0	0	
4	0	0	0	0	509	1	0	0	
5	0	0	0	0	509	1	0	1	
6	0	0	0	0	507	1	0	0	
7	0	0	0	0	503	3	0	0	
8	0	0	0	0	501	0	0	0	
9	0	0	0	0	504	1	0	0	
10	0	0	0	0	512	1	0	0	
11	0	0	0	0	519	1	0	0	
12	0	0	0	0	519	1	0	0	
13	0	0	0	0	514	1	0	1	
14	0	0	0	0	513	1	0	0	
15	0	0	0	0	510	3	0	0	
0	0	0	0	0	519	1	0	0	
1	0	0	0	0	526	1	0	0	
2	0	0	0	0	521	0	0	0	
3	0	0	0	0	513	1	0	0	
4	0	0	0	0	508	1	0	0	
5	0	0	0	0	505	1	0	1	
6	0	0	0	0	507	1	0	0	
7	0	0	0	0	511	3	0	0	
8	0	0	0	0	506	1	0	0	
9	0	0	0	0	505	1	0	0	
10	0	0	0	0	507	0	0	0	
11	0	0	0	0	511	1	0	0	
12	0	0	0	0	510	1	0	0	
13	0	0	0	0	511	1	0	1	
14	0	0	0	0	511	1	0	0	
15	0	0	0	0	505	3	0	0	
0	0	0	0	0	506	1	0	0	
1	0	0	0	0	512	1	0	0	
2	0	0	0	0	515	1	0	0	
3	0	0	0	0	518	0	0	0	
4	0	0	0	0	516	1	0	0	
5	0	0	0	0	518	1	0	1	
6	0	0	0	0	519	1	0	0	
7	0	0	0	0	517	3	0	0	
8	0	0	0	0	511	1	0	0	
9	0	0	0	0	510	1	0	0	
10	0	0	0	0	507	1	0	0	
11	0	0	0	0	505	0	0	0	
12	0	0	0	0	506	1	0	0	
13	0	0	0	0	511	1	0	1	
14	0	0	0	0	512	1	0	0	
15	0	0	0	0	511	3	0	0	
0	0	0	0	0	515	1	0	0	
1	0	0	0	0	513	1	0	0	
2	0	0	0	0	510	1	0	0	
3	0	0	0	0	508	0	0	0	
4	0	0	0	0	508	1	0	0	
5	0	0	0	0	510	1	0	1	
6	0	0	0	0	509	1	0	0	
7	0	0	0	0	513	3	0	0	
8	0	0	0	0	510	1	0	0	
9	0	0	0	0	510	1	0	0	
10	0	0	0	0	512	1	0	0	
11	0	0	0	0	511	0	0	0	
12	0	0	0	0	512	1	0	0	
13	0	0	0	0	513	0	0	1	
14	0	0	0	0	512	1	0	0	
15	0	0	0	0	508	3	0	0	
0	0	0	0	0	507	1	0	0	
1	0	0	0	0	511	1	0	0	
2	0	0	0	0	513	1	0	0	
3	0	0	0	0	516	1	0	0	
4	0	0	0	0	519	1	0	0	
5	0	0	0	0	512	0	0	1	
6	0	0	0	0	512	1	0	0	
7	0	0	0	0	513	3	0	0	
8	0	0	0	0	511	1	0	0	
9	0	0	0	0	513	1	0	0	
10	0	0	0	0	513	1	0	0	
11	0	0	0	0	511	1	0	0	
12	0	0	0	0	506	1	0	0	
13	0	0	0	0	505	1	0	1	
14	0	0	0	0	509	1	0	0	
15	0	0	0	0	511	1	0	0	
0	0	0	0	0	515	1	0	0	
1	0	0	0	0	513	1	0	0	
2	0	0	0	0	508	1	0	0	
3	0	0	0	0	509	0	0	0	
4	0	0	0	0	514	1	0	0	
5	0	0	0	0	517	1	0	1	
6	0	0	0	0	512	1	0	0	
7	0	0	0	0	512	1	0	0	
8	0	0	0	0	512	1	0	0	
9	0	0	0	0	513	1	0	0	
10	0	0	0	0	511	1	0	0	
11	0	0	0	0	509	0	0	0	
12	0	0	0	0	506	1	0	0	
13	0	0	0	0	504	1	0	1	
14	0	0	0	0	508	1	0	0	
15	0	0	0	0	511	1	0	0	
0	0	0	0	0	515	1	0	0	
1	0	0	0	0	514	1	0	0	
2	0	0	0	0	515	1	0	0	
3	0	0	0	0	516	1	0	0	
4	0	0	0	0	509	1	0	0	
5	0	0	0	0	508	0	0	1	
6	0	0	0	0	505	1	0	0	
7	0	0	0	0	509	3	0	0	
8	0	0	0	0	518	1	0	0	
9	0	0	0	0	518	1	0	0	
10	0	0	0	0	512	1	0	0	
11	0	0	0	0	510	1	0	0	
12	0	0	0	0	507	1	0	0	
13	0	0	0	0	512	0	0	1	
14	0	0	0	0	513	1	0	0	
15	0	0	0	0	513	3	0	0	
0	0	0	0	0	510	1	0	0	
1	0	0	0	0	509	1	0	0	
2	0	0	0	0	512	1	0	0	
3	0	0	0	0	512	1	0	0	
4	0	0	0	0	507	1	0	0	
5	0	0	0	0	504	0	0	1	
6	0	0	0	0	511	1	0	0	
7	0	0	0	0	517	3	0	0	
8	0	0	0	0	521	1	0	0	
9	0	0	0	0	516	1	0	0	
10	0	0	0	0	510	1	0	0	
11	0	0	0	0	511	0	0	0	
12	0	0	0	0	509	1	0	0	
13	0	0	0	0	513	1	0	1	
14	0	0	0	0	511	1	0	0	
15	0	0	0	0	510	3	0	0	
0	0	0	0	0	507	1	0	0	
1	0	0	0	0	506	1	0	0	
2	0	0	0	0	509	1	0	0	
3	0	0	0	0	512	0	0	0	
4	0	0	0	0	516	1	0	0	
5	0	0	0	0	508	1	0	1	
6	0	0	0	0	507	1	0	0	
7	0	0	0	0	508	3	0	0	
8	0	0	0	0	511	1	0	0	
9	0	0	0	0	509	1	0	0	
10	0	0	0	0	510	1	0	0	
11	0	0	0	0	506	0	0	0	
12	0	0	0	0	508	1	0	0	
13	0	0	0	0	512	1	0	1	
14	0	0	0	0	516	1	0	0	
15	0	0	0	0	518	3	0	0	
0	0	0	0	0	517	1	0	0	
1	0	0	0	0	511	1	0	0	
2	0	0	0	0	508	0	0	0	
3	0	0	0	0	508	0	0	0	
4	0	0	0	0	508	1	0	0	
5	0	0	0	0	511	1	0	1	
6	0	0	0	0	514	1	0	0	
7	0	0	0	0	519	3	0	0	
8	0	0	0	0	517	1	0	0	
9	0	0	0	0	511	1	0	0	
10	0	0	0	0	510	0	0	0	
11	0	0	0	0	506	1	0	0	
12	0	0	0	0	509	1	0	0	
13	0	0	0	0	508	1	0	1	
14	0	0	0	0	511	1	0	0	
15	0	0	0	0	513	3	0	0	
0	0	0	0	0	511	1	0	0	
1	0	0	0	0	511	1	0	0	
2	0	0	0	0	511	0	0	0	
3	0	0	0	0	509	1	0	0	
4	0	0	0	0	510	1	0	0	
5	0	0	0	0	508	1	0	1	
6	0	0	0	0	511	1	0	0	
7	0	0	0	0	512	3	0	0	
8	0	0	0	0	510	0	0	0	
9	0	0	0	0	509	1	0	0	
10	0	0	0	0	509	1	0	0	
11	0	0	0	0	510	1	0	0	
12	0	0	0	0	512	1	0	0	
13	0	0	0	0	514	1	0	1	
14	0	0	0	0	513	1	0	0	
15	0	0	0	0	516	3	0	0	
0	0	0	0	0	515	1	0	0	
1	0	0	0	0	519	1	0	0	
2	0	0	0	0	514	1	0	0	
3	0	0	0	0	508	0	0	0	
4	0	0	0	0	508	1	0	0	
5	0	0	0	0	511	1	0	1	
6	0	0	0	0	515	1	0	0	
7	0	0	0	0	515	3	0	0	
8	0	0	0	0	512	1	0	0	
9	0	0	0	0	513	1	0	0	
10	0	0	0	0	513	1	0	0	
11	0	0	0	0	513	1	0	0	
12	0	0	0	0	511	1	0	0	
13	0	0	0	0	507	1	0	1	
14	0	0	0	0	505	1	0	0	
15	0	0	0	0	507	1	0	0	
0	0	0	0	0	509	1	0	0	
1	0	0	0	0	513	1	0	0	
2	0	0	0	0	510	1	0	0	
3	0	0	0	0	508	1	0	0	
4	0	0	0	0	507	1	0	0	
5	0	0	0	0	504	1	0	1	
6	0	0	0	0	502	1	0	0	
7	0	0	0	0	508	1	0	0	
8	0	0	0	0	523	1	0	0	
9	0	0	0	0	524	1	0	0	
10	0	0	0	0	524	1	0	0	
11	0	0	0	0	519	1	0	0	
12	0	0	0	0	513	1	0	0	
13	0	0	0	0	512	1	0	1	
14	0	0	0	0	511	1	0	0	
15	0	0	0	0	511	3	0	0	
0	0	0	0	0	508	0	0	0	
1	0	0	0	0	509	1	0	0	
2	0	0	0	0	508	1	0	0	
3	0	0	0	0	507	1	0	0	
4	0	0	0	0	510	1	0	0	
5	0	0	0	0	509	1	0	1	
6	0	0	0	0	509	1	0	0	
7	0	0	0	0	510	3	0	0	
8	0	0	0	0	511	0	0	0	
9	0	0	0	0	508	1	0	0	
10	0	0	0	0	507	1	0	0	
11	0	0	0	0	510	0	0	0	
12	0	0	0	0	514	1	0	0	
13	0	0	0	0	514	1	0	1	
14	0	0	0	0	512	1	0	0	
15	0	0	0	0	512	3	0	0	
0	0	0	0	0	509	0	0	0	
1	0	0	0	0	508	1	0	0	
2	0	0	0	0	509	1	0	0	
3	0	0	0	0	510	0	0	0	
4	0	0	0	0	514	1	0	0	
5	0	0	0	0	519	1	0	1	
6	0	0	0	0	522	1	0	0	
7	0	0	0	0	519	3	0	0	
8	0	0	0	0	514	1	0	0	
9	0	0	0	0	511	1	0	0	
10	0	0	0	0	509	0	0	0	
11	0	0	0	0	504	1	0	0	
12	0	0	0	0	506	1	0	0	
13	0	0	0	0	507	1	0	1	
14	0	0	0	0	509	1	0	0	
15	0	0	0	0	511	3	0	0	
0	0	0	0	0	515	1	0	0	
1	0	0	0	0	518	1	0	0	
2	0	0	0	0	512	0	0	0	
3	0	0	0	0	508	1	0	0	
4	0	0	0	0	508	1	0	0	
5	0	0	0	0	506	1	0	1	
6	0	0	0	0	507	1	0	0	
7	0	0	0	0	515	3	0	0	
8	0	0	0	0	513	1	0	0	
9	0	0	0	0	510	1	0	0	
10	0	0	0	0	509	0	0	0	
11	0	0	0	0	513	0	0	0	
12	0	0	0	0	517	1	0	0	
13	0	0	0	0	521	1	0	1	
14	0	0	0	0	518	1	0	0	
15	0	0	0	0	514	3	0	0	
0	0	0	0	0	510	1	0	0	
1	0	0	0	0	511	1	0	0	
2	0	0	0	0	509	1	0	0	
3	0	0	0	0	508	0	0	0	
4	0	0	0	0	508	1	0	0	
5	0	0	0	0	511	1	0	1	
6	0	0	0	0	508	1	0	0	
7	0	0	0	0	512	3	0	0	
8	0	0	0	0	512	1	0	0	
9	0	0	0	0	513	1	0	0	
10	0	0	0	0	512	1	0	0	
11	0	0	0	0	510	0	0	0	
12	0	0	0	0	511	1	0	0	
13	0	0	0	0	509	1	0	1	
14	0	0	0	0	511	1	0	0	
15	0	0	0	0	510	3	0	0	
0	0	0	0	0	507	1	0	0	
1	0	0	0	0	508	1	0	0	
2	0	0	0	0	512	1	0	0	
3	0	0	0	0	515	1	0	0	
4	0	0	0	0	514	1	0	0	
5	0	0	0	0	512	0	0	1	
6	0	0	0	0	515	1	0	0	
7	0	0	0	0	513	3	0	0	
8	0	0	0	0	512	1	0	0	
9	0	0	0	0	512	1	0	0	
10	0	0	0	0	511	1	0	0	
11	0	0	0	0	507	1	0	0	
12	0	0	0	0	509	1	0	0	
13	0	0	0	0	511	0	0	1	
14	0	0	0	0	511	1	0	0	
15	0	0	0	0	514	3	0	0	
0	0	0	0	0	512	1	0	0	
1	0	0	0	0	508	1	0	0	
2	0	0	0	0	505	1	0	0	
3	0	0	0	0	507	1	0	0	
4	0	0	0	0	508	1	0	0	
5	0	0	0	0	516	0	0	1	
6	0	0	0	0	518	1	0	0	
7	0	0	0	0	523	1	0	0	
8	0	0	0	0	521	1	0	0	
9	0	0	0	0	513	1	0	0	
10	0	0	0	0	513	1	0	0	
11	0	0	0	0	509	1	0	0	
12	0	0	0	0	507	1	0	0	
13	0	0	0	0	511	1	0	1	
14	0	0	0	0	507	1	0	0	
15	0	0	0	0	508	1	0	0	
0	0	0	0	0	508	1	0	0	
1	0	0	0	0	509	1	0	0	
2	0	0	0	0	507	1	0	0	
3	0	0	0	0	507	0	0	0	
4	0	0	0	0	508	1	0	0	
5	0	0	0	0	509	1	0	1	
6	0	0	0	0	513	1	0	0	
7	0	0	0	0	513	1	0	0	
8	0	0	0	0	515	1	0	0	
9	0	0	0	0	511	1	0	0	
10	0	0	0	0	510	1	0	0	
11	0	0	0	0	509	1	0	0	
12	0	0	0	0	513	1	0	0	
13	0	0	0	0	516	0	0	1	
14	0	0	0	0	518	1	0	0	
15	0	0	0	0	512	3	0	0	
0	0	0	0	0	515	1	0	0	
1	0	0	0	0	516	1	0	0	
2	0	0	0	0	512	1	0	0	
3	0	0	0	0	510	0	0	0	
4	0	0	0	0	512	1	0	0	
5	0	0	0	0	509	0	0	1	
6	0	0	0	0	511	1	0	0	
7	0	0	0	0	506	3	0	0	
8	0	0	0	0	506	1	0	0	
9	0	0	0	0	507	1	0	0	
10	0	0	0	0	509	1	0	0	
11	0	0	0	0	510	0	0	0	
12	0	0	0	0	510	1	0	0	
13	0	0	0	0	512	0	0	1	
14	0	0	0	0	513	1	0	0	
15	0	0	0	0	512	3	0	0	
0	0	0	0	0	509	1	0	0	
1	0	0	0	0	510	1	0	0	
2	0	0	0	0	512	1	0	0	
3	0	0	0	0	515	0	0	0	
4	0	0	0	0	517	1	0	0	
5	0	0	0	0	520	1	0	1	
6	0	0	0	0	515	1	0	0	
7	0	0	0	0	512	3	0	0	
8	0	0	0	0	513	1	0	0	
9	0	0	0	0	510	1	0	0	
10	0	0	0	0	507	1	0	0	
11	0	0	0	0	508	0	0	0	
12	0	0	0	0	508	1	0	0	
13	0	0	0	0	508	1	0	1	
14	0	0	0	0	510	1	0	0	
15	0	0	0	0	512	3	0	0	
0	0	0	0	0	511	1	0	0	
1	0	0	0	0	513	1	0	0	
2	0	0	0	0	515	1	0	0	
3	0	0	0	0	515	0	0	0	
4	0	0	0	0	510	1	0	0	
5	0	0	0	0	510	1	0	1	
6	0	0	0	0	509	1	0	0	
7	0	0	0	0	508	3	0	0	
8	0	0	0	0	507	1	0	0	
9	0	0	0	0	508	1	0	0	
10	0	0	0	0	513	0	0	0	
11	0	0	0	0	515	0	0	0	
12	0	0	0	0	511	1	0	0	
13	0	0	0	0	512	1	0	1	
14	0	0	0	0	511	1	0	0	
15	0	0	0	0	512	3	0	0	
0	0	0	0	0	511	1	0	0	
1	0	0	0	0	513	1	0	0	
2	0	0	0	0	513	0	0	0	
3	0	0	0	0	511	1	0	0	
4	0	0	0	0	510	1	0	0	
5	0	0	0	0	511	1	0	1	
6	0	0	0	0	511	1	0	0	
7	0	0	0	0	510	3	0	0	
8	0	0	0	0	508	1	0	0	
9	0	0	0	0	506	1	0	0	
10	0	0	0	0	507	0	0	0	
11	0	0	0	0	512	1	0	0	
12	0	0	0	0	513	1	0	0	
13	0	0	0	0	520	1	0	1	
14	0	0	0	0	518	1	0	0	
15	0	0	0	0	517	3	0	0	
0	0	0	0	0	516	0	0	0	
1	0	0	0	0	512	1	0	0	
2	0	0	0	0	505	1	0	0	
3	0	0	0	0	504	0	0	0	
4	0	0	0	0	507	1	0	0	
5	0	0	0	0	508	1	0	1	
6	0	0	0	0	508	1	0	0	
7	0	0	0	0	511	3	0	0	
8	0	0	0	0	514	1	0	0	
9	0	0	0	0	514	1	0	0	
10	0	0	0	0	514	1	0	0	
11	0	0	0	0	514	1	0	0	
12	0	0	0	0	511	1	0	0	
13	0	0	0	0	509	1	0	1	
14	0	0	0	0	511	1	0	0	
15	0	0	0	0	511	3	0	0	
0	0	0	0	0	514	1	0	0	
1	0	0	0	0	515	1	0	0	
2	0	0	0	0	516	1	0	0	
3	0	0	0	0	513	0	0	0	
4	0	0	0	0	511	1	0	0	
5	0	0	0	0	508	1	0	1	
6	0	0	0	0	505	1	0	0	
7	0	0	0	0	506	1	0	0	
8	0	0	0	0	513	1	0	0	
9	0	0	0	0	515	1	0	0	
10	0	0	0	0	513	1	0	0	
11	0	0	0	0	517	1	0	0	
12	0	0	0	0	513	1	0	0	
13	0	0	0	0	511	1	0	1	
14	0	0	0	0	508	1	0	0	
15	0	0	0	0	506	1	0	0	
0	0	0	0	0	510	1	0	0	
1	0	0	0	0	508	1	0	0	
2	0	0	0	0	508	1	0	0	
3	0	0	0	0	513	1	0	0	
4	0	0	0	0	512	1	0	0	
5	0	0	0	0	518	1	0	1	
6	0	0	0	0	520	1	0	0	
7	0	0	0	0	515	1	0	0	
8	0	0	0	0	510	1	0	0	
9	0	0	0	0	506	1	0	0	
10	0	0	0	0	504	1	0	0	
11	0	0	0	0	505	0	0	0	
12	0	0	0	0	501	1	0	0	
13	0	0	0	0	508	1	0	1	
14	0	0	0	0	517	1	0	0	
15	0	0	0	0	524	3	0	0	
0	0	0	0	0	523	1	0	0	
1	0	0	0	0	513	1	0	0	
2	0	0	0	0	512	1	0	0	
3	0	0	0	0	508	1	0	0	
4	0	0	0	0	509	1	0	0	
5	0	0	0	0	508	1	0	1	
6	0	0	0	0	500	1	0	0	
7	0	0	0	0	508	3	0	0	
8	0	0	0	0	515	1	0	0	
9	0	0	0	0	527	1	0	0	
10	0	0	0	0	521	1	0	0	
11	0	0	0	0	515	0	0	0	
12	0	0	0	0	509	1	0	0	
13	0	0	0	0	510	1	0	1	
14	0	0	0	0	514	1	0	0	
15	0	0	0	0	495	3	0	0	
0	0	0	0	0	494	1	0	0	
1	0	0	0	0	500	1	0	0	
2	0	0	0	0	516	0	0	0	
3	0	0	0	0	524	1	0	0	
4	0	0	0	0	526	1	0	0	
5	0	0	0	0	518	1	0	1	
6	0	0	0	0	517	1	0	0	
7	0	0	0	0	515	3	0	0	
8	0	0	0	0	510	1	0	0	
9	0	0	0	0	510	1	0	0	
10	0	0	0	0	509	0	0	0	
11	0	0	0	0	507	1	0	0	
12	0	0	0	0	506	1	0	0	
13	0	0	0	0	497	1	0	1	
14	0	0	0	0	497	1	0	0	
15	0	0	0	0	505	3	0	0	
0	0	0	0	0	512	1	0	0	
1	0	0	0	0	516	1	0	0	
2	0	0	0	0	520	0	0	0	
3	0	0	0	0	517	1	0	0	
4	0	0	0	0	516	1	0	0	
5	0	0	0	0	514	1	0	1	
6	0	0	0	0	511	1	0	0	
7	0	0	0	0	508	3	0	0	
8	0	0	0	0	504	1	0	0	
9	0	0	0	0	510	1	0	0	
10	0	0	0	0	514	1	0	0	
11	0	0	0	0	520	0	0	0	
12	0	0	0	0	515	1	0	0	
13	0	0	0	0	504	1	0	1	
14	0	0	0	0	499	1	0	0	
15	0	0	0	0	504	3	0	0	
0	0	0	0	0	514	1	0	0	
1	0	0	0	0	516	1	0	0	
2	0	0	0	0	518	1	0	0	
3	0	0	0	0	525	0	0	0	
4	0	0	0	0	522	1	0	0	
5	0	0	0	0	516	1	0	1	
6	0	0	0	0	505	1	0	0	
7	0	0	0	0	503	3	0	0	
8	0	0	0	0	499	1	0	0	
9	0	0	0	0	505	1	0	0	
10	0	0	0	0	508	1	0	0	
11	0	0	0	0	515	1	0	0	
12	0	0	0	0	511	1	0	0	
13	0	0	0	0	512	0	0	1	
14	0	0	0	0	511	1	0	0	
15	0	0	0	0	509	3	0	0	
0	0	0	0	0	509	1	0	0	
1	0	0	0	0	513	1	0	0	
2	0	0	0	0	519	1	0	0	
3	0	0	0	0	523	1	0	0	
4	0	0	0	0	515	1	0	0	
5	0	0	0	0	516	0	0	1	
6	0	0	0	0	511	1	0	0	
7	0	0	0	0	510	3	0	0	
8	0	0	0	0	502	1	0	0	
9	0	0	0	0	505	1	0	0	
10	0	0	0	0	505	1	0	0	
11	0	0	0	0	507	0	0	0	
12	0	0	0	0	506	1	0	0	
13	0	0	0	0	508	0	0	1	
14	0	0	0	0	507	1	0	0	
15	0	0	0	0	509	3	0	0	
0	0	0	0	0	515	1	0	0	
1	0	0	0	0	518	1	0	0	
2	0	0	0	0	517	1	0	0	
3	0	0	0	0	511	1	0	0	
4	0	0	0	0	500	1	0	0	
5	0	0	0	0	496	1	0	1	
6	0	0	0	0	503	1	0	0	
7	0	0	0	0	517	1	0	0	
8	0	0	0	0	527	1	0	0	
9	0	0	0	0	534	1	0	0	
10	0	0	0	0	529	1	0	0	
11	0	0	0	0	511	0	0	0	
12	0	0	0	0	502	1	0	0	
13	0	0	0	0	500	1	0	1	
14	0	0	0	0	504	1	0	0	
15	0	0	0	0	508	1	0	0	
0	0	0	0	0	515	1	0	0	
1	0	0	0	0	514	1	0	0	
2	0	0	0	0	515	1	0	0	
3	0	0	0	0	515	1	0	0	
4	0	0	0	0	509	1	0	0	
5	0	0	0	0	505	1	0	1	
6	0	0	0	0	507	1	0	0	
7	0	0	0	0	501	3	0	0	
8	0	0	0	0	494	1	0	0	
9	0	0	0	0	495	1	0	0	
10	0	0	0	0	504	1	0	0	
11	0	0	0	0	521	1	0	0	
12	0	0	0	0	530	1	0	0	
13	0	0	0	0	528	0	0	1	
14	0	0	0	0	525	1	0	0	
15	0	0	0	0	523	3	0	0	
0	0	0	0	0	516	1	0	0	
1	0	0	0	0	515	1	0	0	
2	0	0	0	0	505	1	0	0	
3	0	0	0	0	508	1	0	0	
4	0	0	0	0	502	1	0	0	
5	0	0	0	0	496	0	0	1	
6	0	0	0	0	500	1	0	0	
7	0	0	0	0	510	3	0	0	
8	0	0	0	0	512	1	0	0	
9	0	0	0	0	515	1	0	0	
10	0	0	0	0	523	1	0	0	
11	0	0	0	0	515	1	0	0	
12	0	0	0	0	505	1	0	0	
13	0	0	0	0	502	1	0	1	
14	0	0	0	0	508	1	0	0	
15	0	0	0	0	510	3	0	0	
0	0	0	0	0	519	1	0	0	
1	0	0	0	0	513	1	0	0	
2	0	0	0	0	512	1	0	0	
3	0	0	0	0	506	0	0	0	
4	0	0	0	0	504	1	0	0	
5	0	0	0	0	504	1	0	1	
6	0	0	0	0	504	1	0	0	
7	0	0	0	0	510	3	0	0	
8	0	0	0	0	530	1	0	0	
9	0	0	0	0	525	1	0	0	
10	0	0	0	0	519	1	0	0	
11	0	0	0	0	515	0	0	0	
12	0	0	0	0	511	1	0	0	
13	0	0	0	0	506	1	0	1	
14	0	0	0	0	507	1	0	0	
15	0	0	0	0	508	3	0	0	
0	0	0	0	0	510	1	0	0	
1	0	0	0	0	512	1	0	0	
2	0	0	0	0	509	1	0	0	
3	0	0	0	0	505	0	0	0	
4	0	0	0	0	507	1	0	0	
5	0	0	0	0	507	1	0	1	
6	0	0	0	0	508	1	0	0	
7	0	0	0	0	507	3	0	0	
8	0	0	0	0	499	1	0	0	
9	0	0	0	0	510	1	0	0	
10	0	0	0	0	518	0	0	0	
11	0	0	0	0	519	1	0	0	
12	0	0	0	0	519	1	0	0	
13	0	0	0	0	522	1	0	1	
14	0	0	0	0	519	1	0	0	
15	0	0	0	0	513	3	0	0	
0	0	0	0	0	502	1	0	0	
1	0	0	0	0	501	1	0	0	
2	0	0	0	0	498	0	0	0	
3	0	0	0	0	515	1	0	0	
4	0	0	0	0	520	1	0	0	
5	0	0	0	0	529	1	0	1	
6	0	0	0	0	521	1	0	0	
7	0	0	0	0	539	3	0	0	
8	0	0	0	0	514	1	0	0	
9	0	0	0	0	509	1	0	0	
10	0	0	0	0	499	1	0	0	
11	0	0	0	0	507	0	0	0	
12	0	0	0	0	511	1	0	0	
13	0	0	0	0	510	1	0	1	
14	0	0	0	0	506	1	0	0	
15	0	0	0	0	505	3	0	0	
0	0	0	0	0	505	0	0	0	
1	0	0	0	0	506	1	0	0	
2	0	0	0	0	507	1	0	0	
3	0	0	0	0	509	1	0	0	
4	0	0	0	0	509	1	0	0	
5	0	0	0	0	510	1	0	1	
6	0	0	0	0	511	1	0	0	
7	0	0	0	0	509	3	0	0	
8	0	0	0	0	507	0	0	0	
9	0	0	0	0	505	1	0	0	
10	0	0	0	0	507	1	0	0	
11	0	0	0	0	507	0	0	0	
12	0	0	0	0	507	1	0	0	
13	0	0	0	0	512	1	0	1	
14	0	0	0	0	516	1	0	0	
15	0	0	0	0	521	1	0	0	
0	0	0	0	0	522	1	0	0	
1	0	0	0	0	520	1	0	0	
2	0	0	0	0	519	1	0	0	
3	0	0	0	0	517	1	0	0	
4	0	0	0	0	518	1	0	0	
5	0	0	0	0	514	1	0	1	
6	0	0	0	0	508	1	0	0	
7	0	0	0	0	506	1	0	0	
8	0	0	0	0	502	1	0	0	
9	0	0	0	0	502	1	0	0	
10	0	0	0	0	509	1	0	0	
11	0	0	0	0	510	1	0	0	
12	0	0	0	0	510	1	0	0	
13	0	0	0	0	519	1	0	1	
14	0	0	0	0	521	1	0	0	
15	0	0	0	0	505	1	0	0	
0	0	0	0	0	502	1	0	0	
1	0	0	0	0	509	1	0	0	
2	0	0	0	0	518	1	0	0	
3	0	0	0	0	513	0	0	0	
4	0	0	0	0	510	1	0	0	
5	0	0	0	0	521	1	0	1	
6	0	0	0	0	503	1	0	0	
7	0	0	0	0	505	3	0	0	
8	0	0	0	0	513	0	0	0	
9	0	0	0	0	519	1	0	0	
10	0	0	0	0	514	1	0	0	
11	0	0	0	0	507	0	0	0	
12	0	0	0	0	500	1	0	0	
13	0	0	0	0	508	1	0	1	
14	0	0	0	0	519	1	0	0	
15	0	0	0	0	519	3	0	0	
0	0	0	0	0	515	1	0	0	
1	0	0	0	0	515	1	0	0	
2	0	0	0	0	514	1	0	0	
3	0	0	0	0	508	1	0	0	
4	0	0	0	0	511	1	0	0	
5	0	0	0	0	514	1	0	1	
6	0	0	0	0	515	1	0	0	
7	0	0	0	0	508	3	0	0	
8	0	0	0	0	505	0	0	0	
9	0	0	0	0	516	1	0	0	
10	0	0	0	0	504	0	0	0	
11	0	0	0	0	517	1	0	0	
12	0	0	0	0	511	1	0	0	
13	0	0	0	0	508	1	0	1	
14	0	0	0	0	508	1	0	0	
15	0	0	0	0	510	3	0	0	
0	0	0	0	0	507	1	0	0	
1	0	0	0	0	503	1	0	0	
2	0	0	0	0	516	0	0	0	
3	0	0	0	0	510	1	0	0	
4	0	0	0	0	504	1	0	0	
5	0	0	0	0	510	1	0	1	
6	0	0	0	0	512	1	0	0	
7	0	0	0	0	519	3	0	0	
8	0	0	0	0	515	1	0	0	
9	0	0	0	0	509	1	0	0	
10	0	0	0	0	504	0	0	0	
11	0	0	0	0	512	1	0	0	
12	0	0	0	0	513	1	0	0	
13	0	0	0	0	517	1	0	1	
14	0	0	0	0	519	1	0	0	
15	0	0	0	0	518	3	0	0	
0	0	0	0	0	516	1	0	0	
1	0	0	0	0	512	1	0	0	
2	0	0	0	0	514	1	0	0	
3	0	0	0	0	513	0	0	0	
4	0	0	0	0	512	1	0	0	
5	0	0	0	0	508	1	0	1	
6	0	0	0	0	502	1	0	0	
7	0	0	0	0	500	3	0	0	
8	0	0	0	0	498	1	0	0	
9	0	0	0	0	505	1	0	0	
10	0	0	0	0	514	1	0	0	
11	0	0	0	0	521	0	0	0	
12	0	0	0	0	523	1	0	0	
13	0	0	0	0	518	1	0	1	
14	0	0	0	0	514	1	0	0	
15	0	0	0	0	511	3	0	0	
0	0	0	0	0	511	1	0	0	
1	0	0	0	0	508	1	0	0	
2	0	0	0	0	510	1	0	0	
3	0	0	0	0	510	0	0	0	
4	0	0	0	0	509	1	0	0	
5	0	0	0	0	505	1	0	1	
6	0	0	0	0	504	1	0	0	
7	0	0	0	0	499	3	0	0	
8	0	0	0	0	503	1	0	0	
9	0	0	0	0	514	1	0	0	
10	0	0	0	0	505	1	0	0	
11	0	0	0	0	529	1	0	0	
12	0	0	0	0	543	1	0	0	
13	0	0	0	0	537	0	0	1	
14	0	0	0	0	520	1	0	0	
15	0	0	0	0	514	3	0	0	
0	0	0	0	0	500	1	0	0	
1	0	0	0	0	501	1	0	0	
2	0	0	0	0	508	1	0	0	
3	0	0	0	0	508	1	0	0	
4	0	0	0	0	504	1	0	0	
5	0	0	0	0	499	0	0	1	
6	0	0	0	0	496	1	0	0	
7	0	0	0	0	509	3	0	0	
8	0	0	0	0	521	1	0	0	
9	0	0	0	0	519	1	0	0	
10	0	0	0	0	513	1	0	0	
11	0	0	0	0	511	1	0	0	
12	0	0	0	0	505	1	0	0	
13	0	0	0	0	507	1	0	1	
14	0	0	0	0	509	1	0	0	
15	0	0	0	0	516	1	0	0	
0	0	0	0	0	519	1	0	0	
1	0	0	0	0	516	1	0	0	
2	0	0	0	0	518	1	0	0	
3	0	0	0	0	518	1	0	0	
4	0	0	0	0	514	1	0	0	
5	0	0	0	0	509	1	0	1	
6	0	0	0	0	503	1	0	0	
7	0	0	0	0	500	1	0	0	
8	0	0	0	0	504	1	0	0	
9	0	0	0	0	508	1	0	0	
10	0	0	0	0	518	1	0	0	
11	0	0	0	0	519	1	0	0	
12	0	0	0	0	516	1	0	0	
13	0	0	0	0	507	1	0	1	
14	0	0	0	0	509	1	0	0	
15	0	0	0	0	516	1	0	0	
0	0	0	0	0	511	1	0	0	
1	0	0	0	0	504	1	0	0	
2	0	0	0	0	502	1	0	0	
3	0	0	0	0	512	1	0	0	
4	0	0	0	0	515	1	0	0	
5	0	0	0	0	524	0	0	1	
6	0	0	0	0	523	1	0	0	
7	0	0	0	0	519	3	0	0	
8	0	0	0	0	517	1	0	0	
9	0	0	0	0	507	1	0	0	
10	0	0	0	0	499	1	0	0	
11	0	0	0	0	501	1	0	0	
12	0	0	0	0	503	1	0	0	
13	0	0	0	0	510	0	0	1	
14	0	0	0	0	517	1	0	0	
15	0	0	0	0	511	3	0	0	
0	0	0	0	0	510	1	0	0	
1	0	0	0	0	509	1	0	0	
2	0	0	0	0	513	1	0	0	
3	0	0	0	0	508	0	0	0	
4	0	0	0	0	518	1	0	0	
5	0	0	0	0	513	0	0	1	
6	0	0	0	0	507	1	0	0	
7	0	0	0	0	513	3	0	0	
8	0	0	0	0	504	1	0	0	
9	0	0	0	0	497	1	0	0	
10	0	0	0	0	492	1	0	0	
11	0	0	0	0	504	0	0	0	
12	0	0	0	0	533	1	0	0	
13	0	0	0	0	531	1	0	1	
14	0	0	0	0	526	1	0	0	
15	0	0	0	0	518	3	0	0	
0	0	0	0	0	514	1	0	0	
1	0	0	0	0	513	1	0	0	
2	0	0	0	0	515	1	0	0	
3	0	0	0	0	512	0	0	0	
4	0	0	0	0	511	1	0	0	
5	0	0	0	0	511	1	0	1	
6	0	0	0	0	500	1	0	0	
7	0	0	0	0	497	3	0	0	
8	0	0	0	0	504	1	0	0	
9	0	0	0	0	505	1	0	0	
10	0	0	0	0	503	1	0	0	
11	0	0	0	0	515	0	0	0	
12	0	0	0	0	529	1	0	0	
13	0	0	0	0	519	1	0	1	
14	0	0	0	0	514	1	0	0	
15	0	0	0	0	511	3	0	0	
0	0	0	0	0	512	1	0	0	
1	0	0	0	0	514	1	0	0	
2	0	0	0	0	512	0	0	0	
3	0	0	0	0	514	1	0	0	
4	0	0	0	0	519	1	0	0	
5	0	0	0	0	506	1	0	1	
6	0	0	0	0	499	1	0	0	
7	0	0	0	0	496	3	0	0	
8	0	0	0	0	498	1	0	0	
9	0	0	0	0	504	1	0	0	
10	0	0	0	0	524	0	0	0	
11	0	0	0	0	527	1	0	0	
12	0	0	0	0	529	1	0	0	
13	0	0	0	0	519	1	0	1	
14	0	0	0	0	517	1	0	0	
15	0	0	0	0	504	3	0	0	
0	0	0	0	0	502	1	0	0	
1	0	0	0	0	507	1	0	0	
2	0	0	0	0	502	0	0	0	
3	0	0	0	0	502	0	0	0	
4	0	0	0	0	503	1	0	0	
5	0	0	0	0	510	1	0	1	
6	0	0	0	0	515	1	0	0	
7	0	0	0	0	517	3	0	0	
8	0	0	0	0	515	0	0	0	
9	0	0	0	0	507	1	0	0	
10	0	0	0	0	515	1	0	0	
11	0	0	0	0	524	1	0	0	
12	0	0	0	0	525	1	0	0	
13	0	0	0	0	511	1	0	1	
14	0	0	0	0	509	1	0	0	
15	0	0	0	0	508	3	0	0	
0	0	0	0	0	511	0	0	0	
1	0	0	0	0	515	1	0	0	
2	0	0	0	0	509	1	0	0	
3	0	0	0	0	506	1	0	0	
4	0	0	0	0	510	1	0	0	
5	0	0	0	0	512	1	0	1	
6	0	0	0	0	505	1	0	0	
7	0	0	0	0	504	3	0	0	
8	0	0	0	0	511	1	0	0	
9	0	0	0	0	510	1	0	0	
10	0	0	0	0	511	1	0	0	
11	0	0	0	0	513	1	0	0	
12	0	0	0	0	512	1	0	0	
13	0	0	0	0	509	1	0	1	
14	0	0	0	0	507	1	0	0	
15	0	0	0	0	507	1	0	0	
0	0	0	0	0	511	1	0	0	
1	0	0	0	0	516	1	0	0	
2	0	0	0	0	519	1	0	0	
3	0	0	0	0	524	1	0	0	
4	0	0	0	0	524	1	0	0	
5	0	0	0	0	514	1	0	1	
6	0	0	0	0	508	1	0	0	
7	0	0	0	0	508	1	0	0	
8	0	0	0	0	507	1	0	0	
9	0	0	0	0	498	1	0	0	
10	0	0	0	0	506	1	0	0	
11	0	0	0	0	516	1	0	0	
12	0	0	0	0	519	1	0	0	
13	0	0	0	0	518	1	0	1	
14	0	0	0	0	507	1	0	0	
15	0	0	0	0	499	3	0	0	
0	0	0	0	0	504	0	0	0	
1	0	0	0	0	508	1	0	0	
2	0	0	0	0	506	1	0	0	
3	0	0	0	0	511	1	0	0	
4	0	0	0	0	530	1	0	0	
5	0	0	0	0	524	1	0	1	
6	0	0	0	0	519	1	0	0	
7	0	0	0	0	511	3	0	0	
8	0	0	0	0	511	0	0	0	
9	0	0	0	0	501	1	0	0	
10	0	0	0	0	502	1	0	0	
11	0	0	0	0	510	1	0	0	
12	0	0	0	0	519	1	0	0	
13	0	0	0	0	519	1	0	1	
14	0	0	0	0	510	1	0	0	
15	0	0	0	0	501	3	0	0	
0	0	0	0	0	499	1	0	0	
1	0	0	0	0	505	1	0	0	
2	0	0	0	0	511	1	0	0	
3	0	0	0	0	515	1	0	0	
4	0	0	0	0	512	1	0	0	
5	0	0	0	0	507	1	0	1	
6	0	0	0	0	511	1	0	0	
7	0	0	0	0	515	3	0	0	
8	0	0	0	0	515	1	0	0	
9	0	0	0	0	508	1	0	0	
10	0	0	0	0	516	0	0	0	
11	0	0	0	0	517	1	0	0	
12	0	0	0	0	521	1	0	0	
13	0	0	0	0	517	1	0	1	
14	0	0	0	0	511	1	0	0	
15	0	0	0	0	508	3	0	0	
0	0	0	0	0	511	1	0	0	
1	0	0	0	0	510	1	0	0	
2	0	0	0	0	511	0	0	0	
3	0	0	0	0	510	0	0	0	
4	0	0	0	0	508	1	0	0	
5	0	0	0	0	508	1	0	1	
6	0	0	0	0	510	1	0	0	
7	0	0	0	0	513	3	0	0	
8	0	0	0	0	515	1	0	0	
9	0	0	0	0	511	1	0	0	
10	0	0	0	0	508	1	0	0	
11	0	0	0	0	511	0	0	0	
12	0	0	0	0	512	1	0	0	
13	0	0	0	0	507	1	0	1	
14	0	0	0	0	507	1	0	0	
15	0	0	0	0	512	3	0	0	
0	0	0	0	0	518	1	0	0	
1	0	0	0	0	514	1	0	0	
2	0	0	0	0	511	1	0	0	
3	0	0	0	0	510	0	0	0	
4	0	0	0	0	514	1	0	0	
5	0	0	0	0	509	1	0	1	
6	0	0	0	0	513	1	0	0	
7	0	0	0	0	514	3	0	0	
8	0	0	0	0	516	1	0	0	
9	0	0	0	0	516	1	0	0	
10	0	0	0	0	511	1	0	0	
11	0	0	0	0	508	0	0	0	
12	0	0	0	0	505	1	0	0	
13	0	0	0	0	506	1	0	1	
14	0	0	0	0	505	1	0	0	
15	0	0	0	0	508	3	0	0	
0	0	0	0	0	512	1	0	0	
1	0	0	0	0	513	1	0	0	
2	0	0	0	0	512	1	0	0	
3	0	0	0	0	512	1	0	0	
4	0	0	0	0	511	1	0	0	
5	0	0	0	0	511	0	0	1	
6	0	0	0	0	509	1	0	0	
7	0	0	0	0	505	3	0	0	
8	0	0	0	0	504	1	0	0	
9	0	0	0	0	507	1	0	0	
10	0	0	0	0	511	1	0	0	
11	0	0	0	0	515	1	0	0	
12	0	0	0	0	521	1	0	0	
13	0	0	0	0	518	0	0	1	
14	0	0	0	0	520	1	0	0	
15	0	0	0	0	521	3	0	0	
0	0	0	0	0	516	1	0	0	
1	0	0	0	0	507	1	0	0	
2	0	0	0	0	508	1	0	0	
3	0	0	0	0	505	0	0	0	
4	0	0	0	0	505	1	0	0	
5	0	0	0	0	507	0	0	1	
6	0	0	0	0	512	1	0	0	
7	0	0	0	0	516	1	0	0	
8	0	0	0	0	515	1	0	0	
9	0	0	0	0	510	1	0	0	
10	0	0	0	0	510	1	0	0	
11	0	0	0	0	511	1	0	0	
12	0	0	0	0	511	1	0	0	
13	0	0	0	0	512	1	0	1	
14	0	0	0	0	507	1	0	0	
15	0	0	0	0	506	1	0	0	
0	0	0	0	0	506	1	0	0	
1	0	0	0	0	511	1	0	0	
2	0	0	0	0	512	1	0	0	
3	0	0	0	0	512	0	0	0	
4	0	0	0	0	514	1	0	0	
5	0	0	0	0	512	1	0	1	
6	0	0	0	0	512	1	0	0	
7	0	0	0	0	513	1	0	0	
8	0	0	0	0	512	1	0	0	
9	0	0	0	0	509	1	0	0	
10	0	0	0	0	511	1	0	0	
11	0	0	0	0	511	1	0	0	
12	0	0	0	0	513	1	0	0	
13	0	0	0	0	513	0	0	1	
14	0	0	0	0	511	1	0	0	
15	0	0	0	0	510	3	0	0	
0	0	0	0	0	509	1	0	0	
1	0	0	0	0	509	1	0	0	
2	0	0	0	0	510	1	0	0	
3	0	0	0	0	511	1	0	0	
4	0	0	0	0	515	1	0	0	
5	0	0	0	0	513	0	0	1	
6	0	0	0	0	511	1	0	0	
7	0	0	0	0	509	3	0	0	
8	0	0	0	0	512	1	0	0	
9	0	0	0	0	512	1	0	0	
10	0	0	0	0	513	1	0	0	
11	0	0	0	0	510	0	0	0	
12	0	0	0	0	511	1	0	0	
13	0	0	0	0	513	0	0	1	
14	0	0	0	0	512	1	0	0	
15	0	0	0	0	511	3	0	0	
0	0	0	0	0	512	1	0	0	
1	0	0	0	0	512	1	0	0	
2	0	0	0	0	510	1	0	0	
3	0	0	0	0	508	0	0	0	
4	0	0	0	0	509	1	0	0	
5	0	0	0	0	507	1	0	1	
6	0	0	0	0	510	1	0	0	
7	0	0	0	0	513	3	0	0	
8	0	0	0	0	513	1	0	0	
9	0	0	0	0	512	1	0	0	
10	0	0	0	0	514	1	0	0	
11	0	0	0	0	511	0	0	0	
12	0	0	0	0	512	1	0	0	
13	0	0	0	0	511	1	0	1	
14	0	0	0	0	508	1	0	0	
15	0	0	0	0	512	3	0	0	
0	0	0	0	0	512	1	0	0	
1	0	0	0	0	513	1	0	0	
2	0	0	0	0	510	1	0	0	
3	0	0	0	0	510	0	0	0	
4	0	0	0	0	512	1	0	0	
5	0	0	0	0	515	1	0	1	
6	0	0	0	0	518	1	0	0	
7	0	0	0	0	518	3	0	0	
8	0	0	0	0	518	1	0	0	
9	0	0	0	0	512	1	0	0	
10	0	0	0	0	508	0	0	0	
11	0	0	0	0	508	0	0	0	
12	0	0	0	0	505	1	0	0	
13	0	0	0	0	505	1	0	1	
14	0	0	0	0	508	1	0	0	
15	0	0	0	0	509	3	0	0	
0	0	0	0	0	511	1	0	0	
1	0	0	0	0	512	1	0	0	
2	0	0	0	0	512	0	0	0	
3	0	0	0	0	512	1	0	0	
4	0	0	0	0	511	1	0	0	
5	0	0	0	0	510	1	0	1	
6	0	0	0	0	513	1	0	0	
7	0	0	0	0	512	3	0	0	
8	0	0	0	0	512	1	0	0	
9	0	0	0	0	513	1	0	0	
10	0	0	0	0	513	0	0	0	
11	0	0	0	0	511	1	0	0	
12	0	0	0	0	514	1	0	0	
13	0	0	0	0	510	1	0	1	
14	0	0	0	0	509	1	0	0	
15	0	0	0	0	508	3	0	0	
0	0	0	0	0	511	1	0	0	
1	0	0	0	0	509	1	0	0	
2	0	0	0	0	510	1	0	0	
3	0	0	0	0	510	0	0	0	
4	0	0	0	0	510	1	0	0	
5	0	0	0	0	509	1	0	1	
6	0	0	0	0	511	1	0	0	
7	0	0	0	0	512	3	0	0	
8	0	0	0	0	512	0	0	0	
9	0	0	0	0	513	1	0	0	
10	0	0	0	0	516	1	0	0	
11	0	0	0	0	517	1	0	0	
12	0	0	0	0	515	1	0	0	
13	0	0	0	0	514	1	0	1	
14	0	0	0	0	511	1	0	0	
15	0	0	0	0	509	3	0	0	
0	0	0	0	0	508	1	0	0	
1	0	0	0	0	508	1	0	0	
2	0	0	0	0	511	1	0	0	
3	0	0	0	0	513	0	0	0	
4	0	0	0	0	513	1	0	0	
5	0	0	0	0	511	1	0	1	
6	0	0	0	0	511	1	0	0	
7	0	0	0	0	514	1	0	0	
8	0	0	0	0	512	1	0	0	
9	0	0	0	0	511	1	0	0	
10	0	0	0	0	511	1	0	0	
11	0	0	0	0	510	1	0	0	
12	0	0	0	0	511	1	0	0	
13	0	0	0	0	509	1	0	1	
14	0	0	0	0	511	1	0	0	
15	0	0	0	0	511	1	0	0	
0	0	0	0	0	511	1	0	0	
1	0	0	0	0	510	1	0	0	
2	0	0	0	0	510	1	0	0	
3	0	0	0	0	511	1	0	0	
4	0	0	0	0	512	1	0	0	
5	0	0	0	0	514	1	0	1	
6	0	0	0	0	510	1	0	0	
7	0	0	0	0	509	1	0	0	
8	0	0	0	0	511	1	0	0	
9	0	0	0	0	513	1	0	0	
10	0	0	0	0	513	1	0	0	
11	0	0	0	0	510	0	0	0	
12	0	0	0	0	511	1	0	0	
13	0	0	0	0	512	1	0	1	
14	0	0	0	0	511	1	0	0	
15	0	0	0	0	511	3	0	0	
0	0	0	0	0	511	1	0	0	
1	0	0	0	0	510	1	0	0	
2	0	0	0	0	512	1	0	0	
3	0	0	0	0	513	1	0	0	
4	0	0	0	0	515	1	0	0	
5	0	0	0	0	512	1	0	1	
6	0	0	0	0	509	1	0	0	
7	0	0	0	0	512	3	0	0	
8	0	0	0	0	513	0	0	0	
9	0	0	0	0	512	1	0	0	
10	0	0	0	0	514	1	0	0	
11	0	0	0	0	515	0	0	0	
12	0	0	0	0	508	1	0	0	
13	0	0	0	0	510	1	0	1	
14	0	0	0	0	509	1	0	0	
15	0	0	0	0	511	3	0	0	
0	0	0	0	0	513	1	0	0	
1	0	0	0	0	513	1	0	0	
2	0	0	0	0	513	0	0	0	
3	0	0	0	0	510	1	0	0	
4	0	0	0	0	511	1	0	0	
5	0	0	0	0	512	1	0	1	
6	0	0	0	0	512	1	0	0	
7	0	0	0	0	508	3	0	0	
8	0	0	0	0	510	1	0	0	
9	0	0	0	0	511	1	0	0	
10	0	0	0	0	509	0	0	0	
11	0	0	0	0	512	1	0	0	
12	0	0	0	0	512	1	0	0	
13	0	0	0	0	511	1	0	1	
14	0	0	0	0	511	1	0	0	
15	0	0	0	0	511	3	0	0	
0	0	0	0	0	511	1	0	0	
1	0	0	0	0	511	1	0	0	
2	0	0	0	0	509	0	0	0	
3	0	0	0	0	511	1	0	0	
4	0	0	0	0	513	1	0	0	
5	0	0	0	0	513	1	0	1	
6	0	0	0	0	513	1	0	0	
7	0	0	0	0	510	3	0	0	
8	0	0	0	0	511	1	0	0	
9	0	0	0	0	509	1	0	0	
10	0	0	0	0	512	1	0	0	
11	0	0	0	0	512	0	0	0	
12	0	0	0	0	511	1	0	0	
13	0	0	0	0	510	1	0	1	
14	0	0	0	0	512	1	0	0	
15	0	0	0	0	512	3	0	0	
0	0	0	0	0	512	1	0	0	
1	0	0	0	0	511	1	0	0	
2	0	0	0	0	511	1	0	0	
3	0	0	0	0	510	0	0	0	
4	0	0	0	0	509	1	0	0	
5	0	0	0	0	511	1	0	1	
6	0	0	0	0	513	1	0	0	
7	0	0	0	0	516	3	0	0	
8	0	0	0	0	516	1	0	0	
9	0	0	0	0	515	1	0	0	
10	0	0	0	0	516	1	0	0	
11	0	0	0	0	515	1	0	0	
12	0	0	0	0	510	1	0	0	
13	0	0	0	0	507	0	0	1	
14	0	0	0	0	508	1	0	0	
15	0	0	0	0	508	3	0	0	
0	0	0	0	0	512	1	0	0	
1	0	0	0	0	511	1	0	0	
2	0	0	0	0	511	1	0	0	
3	0	0	0	0	512	1	0	0	
4	0	0	0	0	510	1	0	0	
5	0	0	0	0	511	0	0	1	
6	0	0	0	0	509	1	0	0	
7	0	0	0	0	510	3	0	0	
8	0	0	0	0	510	1	0	0	
9	0	0	0	0	511	1	0	0	
10	0	0	0	0	511	1	0	0	
11	0	0	0	0	511	1	0	0	
12	0	0	0	0	511	1	0	0	
13	0	0	0	0	512	0	0	1	
14	0	0	0	0	511	1	0	0	
15	0	0	0	0	512	3	0	0	
0	0	0	0	0	513	1	0	0	
1	0	0	0	0	511	1	0	0	
2	0	0	0	0	511	1	0	0	
3	0	0	0	0	511	1	0	0	
4	0	0	0	0	510	1	0	0	
5	0	0	0	0	511	1	0	1	
6	0	0	0	0	512	1	0	0	
7	0	0	0	0	513	1	0	0	
8	0	0	0	0	509	1	0	0	
9	0	0	0	0	509	1	0	0	
10	0	0	0	0	510	1	0	0	
11	0	0	0	0	513	1	0	0	
12	0	0	0	0	512	1	0	0	
13	0	0	0	0	511	1	0	1	
14	0	0	0	0	513	1	0	0	
15	0	0	0	0	512	1	0	0	
0	0	0	0	0	511	1	0	0	
1	0	0	0	0	515	1	0	0	
2	0	0	0	0	513	1	0	0	
3	0	0	0	0	511	1	0	0	
4	0	0	0	0	509	1	0	0	
5	0	0	0	0	511	1	0	1	
6	0	0	0	0	511	1	0	0	
7	0	0	0	0	511	3	0	0	
8	0	0	0	0	512	1	0	0	
9	0	0	0	0	512	1	0	0	
10	0	0	0	0	511	1	0	0	
11	0	0	0	0	511	1	0	0	
12	0	0	0	0	509	1	0	0	
13	0	0	0	0	512	0	0	1	
14	0	0	0	0	510	1	0	0	
15	0	0	0	0	511	3	0	0	
0	0	0	0	0	509	1	0	0	
1	0	0	0	0	511	1	0	0	
2	0	0	0	0	512	1	0	0	
3	0	0	0	0	513	1	0	0	
4	0	0	0	0	512	1	0	0	
5	0	0	0	0	514	0	0	1	
6	0	0	0	0	512	1	0	0	
7	0	0	0	0	512	3	0	0	
8	0	0	0	0	511	1	0	0	
9	0	0	0	0	510	1	0	0	
10	0	0	0	0	511	1	0	0	
11	0	0	0	0	510	0	0	0	
12	0	0	0	0	510	1	0	0	
13	0	0	0	0	511	1	0	1	
14	0	0	0	0	511	1	0	0	
15	0	0	0	0	514	3	0	0	
0	0	0	0	0	513	1	0	0	
1	0	0	0	0	511	1	0	0	
2	0	0	0	0	511	1	0	0	
3	0	0	0	0	512	0	0	0	
4	0	0	0	0	512	1	0	0	
5	0	0	0	0	512	1	0	1	
6	0	0	0	0	510	1	0	0	
7	0	0	0	0	511	3	0	0	
8	0	0	0	0	508	1	0	0	
9	0	0	0	0	510	1	0	0	
10	0	0	0	0	511	1	0	0	
11	0	0	0	0	511	0	0	0	
12	0	0	0	0	512	1	0	0	
13	0	0	0	0	514	1	0	1	
14	0	0	0	0	512	1	0	0	
15	0	0	0	0	515	3	0	0	
0	0	0	0	0	514	1	0	0	
1	0	0	0	0	511	1	0	0	
2	0	0	0	0	510	0	0	0	
3	0	0	0	0	512	1	0	0	
4	0	0	0	0	509	1	0	0	
5	0	0	0	0	511	1	0	1	
6	0	0	0	0	511	1	0	0	
7	0	0	0	0	514	3	0	0	
8	0	0	0	0	516	1	0	0	
9	0	0	0	0	516	1	0	0	
10	0	0	0	0	509	0	0	0	
11	0	0	0	0	509	1	0	0	
12	0	0	0	0	510	1	0	0	
13	0	0	0	0	509	1	0	1	
14	0	0	0	0	509	1	0	0	
15	0	0	0	0	509	3	0	0	
0	0	0	0	0	512	1	0	0	
1	0	0	0	0	511	1	0	0	
2	0	0	0	0	512	0	0	0	
3	0	0	0	0	513	1	0	0	
4	0	0	0	0	514	1	0	0	
5	0	0	0	0	513	1	0	1	
6	0	0	0	0	512	1	0	0	
7	0	0	0	0	511	3	0	0	
8	0	0	0	0	509	1	0	0	
9	0	0	0	0	510	1	0	0	
10	0	0	0	0	508	1	0	0	
11	0	0	0	0	509	0	0	0	
12	0	0	0	0	510	1	0	0	
13	0	0	0	0	510	1	0	1	
14	0	0	0	0	510	1	0	0	
15	0	0	0	0	512	3	0	0	
