# OpenSignals Text File Format. Version 1
# {"20:19:07:00:80:4C": {"position": 0, "device": "bitalino_rev", "device name": "20:19:07:00:80:4C", "device connection": "BTH20:19:07:00:80:4C", "sampling rate": 1000, "resolution": [4, 1, 1, 1, 1, 10, 10, 10, 10, 6, 6], "firmware version": 1282, "comments": "", "keywords": "", "mode": 0, "sync interval": 2, "date": "2022-3-28", "time": "15:58:50.687", "channels": [1, 2, 3, 4, 5, 6], "sensor": ["RAW", "RAW", "RAW", "RAW", "RAW", "RAW"], "label": ["A1", "A2", "A3", "A4", "A5", "A6"], "column": ["nSeq", "I1", "I2", "O1", "O2", "A1", "A2", "A3", "A4", "A5", "A6"], "special": [{}, {}, {}, {}, {}, {}], "digital IO": [0, 0, 1, 1]}}
# EndOfHeader
0	0	0	0	0	504	515	510	511	31	31	
1	0	0	0	0	502	515	510	511	31	32	
2	0	0	0	0	503	516	511	510	31	32	
3	0	0	0	0	504	512	513	510	31	32	
4	0	0	0	0	506	511	512	508	31	31	
5	0	0	0	0	505	509	511	509	31	31	
6	0	0	0	0	504	508	511	508	31	31	
7	0	0	0	0	504	514	511	511	31	31	
8	0	0	0	0	504	511	512	510	31	32	
9	0	0	0	0	502	512	512	511	31	32	
10	0	0	0	0	502	514	511	509	31	31	
11	0	0	0	0	499	516	512	505	31	31	
12	0	0	0	0	496	513	511	507	31	31	
13	0	0	0	0	499	512	513	509	31	31	
14	0	0	0	0	500	514	513	509	31	31	
15	0	0	0	0	503	508	512	509	31	31	
0	0	0	0	0	504	508	510	510	31	31	
1	0	0	0	0	508	507	509	512	31	31	
2	0	0	0	0	509	502	510	512	31	31	
3	0	0	0	0	509	506	510	512	31	31	
4	0	0	0	0	508	507	509	510	31	32	
5	0	0	0	0	508	508	511	511	31	32	
6	0	0	0	0	507	511	511	511	31	31	
7	0	0	0	0	506	514	511	512	31	32	
8	0	0	0	0	503	515	511	513	31	31	
9	0	0	0	0	501	516	513	512	31	31	
10	0	0	0	0	502	518	511	508	31	31	
11	0	0	0	0	504	516	513	507	31	31	
12	0	0	0	0	501	514	512	508	31	31	
13	0	0	0	0	503	515	512	509	31	32	
14	0	0	0	0	502	515	511	510	31	32	
15	0	0	0	0	501	517	512	510	31	31	
0	0	0	0	0	499	515	512	511	31	31	
1	0	0	0	0	502	516	513	509	31	31	
2	0	0	0	0	507	510	512	509	31	31	
3	0	0	0	0	504	508	511	511	31	31	
4	0	0	0	0	505	508	512	508	31	31	
5	0	0	0	0	509	513	514	512	31	31	
6	0	0	0	0	504	513	512	508	31	32	
7	0	0	0	0	503	509	512	508	31	31	
8	0	0	0	0	504	508	511	511	31	32	
9	0	0	0	0	503	512	513	510	31	31	
10	0	0	0	0	505	514	513	513	31	31	
11	0	0	0	0	503	514	510	510	31	31	
12	0	0	0	0	502	518	510	510	31	31	
13	0	0	0	0	504	514	512	510	31	31	
14	0	0	0	0	505	512	511	510	31	32	
15	0	0	0	0	504	513	514	510	31	31	
0	0	0	0	0	501	510	513	510	31	31	
1	0	0	0	0	502	511	511	509	31	31	
2	0	0	0	0	504	511	511	508	31	31	
3	0	0	0	0	504	513	509	512	31	31	
4	0	0	0	0	504	512	510	512	31	31	
5	0	0	0	0	503	511	511	511	31	32	
6	0	0	0	0	506	513	510	512	31	32	
7	0	0	0	0	504	509	512	509	31	31	
8	0	0	0	0	507	507	512	511	31	31	
9	0	0	0	0	503	506	510	509	31	31	
10	0	0	0	0	499	508	511	509	31	31	
11	0	0	0	0	503	510	513	510	31	31	
12	0	0	0	0	504	515	513	509	31	31	
13	0	0	0	0	504	515	516	510	31	31	
14	0	0	0	0	504	515	515	509	31	31	
15	0	0	0	0	501	514	512	511	31	32	
0	0	0	0	0	499	515	512	511	31	31	
1	0	0	0	0	498	515	511	510	31	31	
2	0	0	0	0	500	519	512	510	31	31	
3	0	0	0	0	504	519	510	510	31	31	
4	0	0	0	0	504	519	510	509	31	32	
5	0	0	0	0	503	518	510	509	31	32	
6	0	0	0	0	504	515	512	510	31	32	
7	0	0	0	0	506	515	511	510	31	32	
8	0	0	0	0	505	514	514	511	31	31	
9	0	0	0	0	505	507	512	510	31	31	
10	0	0	0	0	507	500	511	509	31	31	
11	0	0	0	0	502	499	512	511	31	31	
12	0	0	0	0	503	503	510	513	31	32	
13	0	0	0	0	504	508	511	513	31	32	
14	0	0	0	0	506	508	510	512	31	32	
15	0	0	0	0	507	510	513	507	31	32	
0	0	0	0	0	505	512	509	511	31	31	
1	0	0	0	0	501	516	510	510	31	31	
2	0	0	0	0	504	516	512	511	31	31	
3	0	0	0	0	503	515	511	510	31	31	
4	0	0	0	0	504	516	511	508	31	31	
5	0	0	0	0	503	517	512	509	31	31	
6	0	0	0	0	502	516	511	506	31	31	
7	0	0	0	0	503	516	511	511	31	31	
8	0	0	0	0	501	514	512	510	31	32	
9	0	0	0	0	500	512	513	515	31	32	
10	0	0	0	0	500	512	511	509	31	31	
11	0	0	0	0	502	511	511	511	31	31	
12	0	0	0	0	502	514	511	510	31	31	
13	0	0	0	0	499	513	510	510	31	31	
14	0	0	0	0	504	514	511	510	31	32	
15	0	0	0	0	506	515	511	512	31	32	
0	0	0	0	0	504	513	511	511	31	31	
1	0	0	0	0	504	512	512	510	31	31	
2	0	0	0	0	506	512	512	509	31	31	
3	0	0	0	0	504	511	512	511	31	31	
4	0	0	0	0	507	508	512	510	31	31	
5	0	0	0	0	508	504	512	510	31	31	
6	0	0	0	0	508	502	514	512	31	32	
7	0	0	0	0	509	504	513	510	31	31	
8	0	0	0	0	507	508	513	511	31	31	
9	0	0	0	0	508	513	512	511	31	31	
10	0	0	0	0	505	515	510	508	31	31	
11	0	0	0	0	504	517	512	508	31	32	
12	0	0	0	0	502	520	511	510	31	31	
13	0	0	0	0	503	519	511	509	31	32	
14	0	0	0	0	502	518	513	509	31	32	
15	0	0	0	0	501	518	512	511	31	31	
0	0	0	0	0	503	513	512	512	31	31	
1	0	0	0	0	503	516	509	512	31	31	
2	0	0	0	0	501	518	511	511	31	31	
3	0	0	0	0	503	513	512	510	31	31	
4	0	0	0	0	502	507	511	509	31	31	
5	0	0	0	0	504	503	511	509	31	31	
6	0	0	0	0	502	503	514	510	31	32	
7	0	0	0	0	503	506	511	509	31	32	
8	0	0	0	0	504	509	512	513	31	32	
9	0	0	0	0	504	512	512	510	31	32	
10	0	0	0	0	505	515	510	511	31	32	
11	0	0	0	0	504	515	510	510	31	32	
12	0	0	0	0	505	518	511	509	31	31	
13	0	0	0	0	504	518	512	509	31	31	
14	0	0	0	0	504	514	510	511	31	31	
15	0	0	0	0	504	514	513	512	31	31	
0	0	0	0	0	503	511	510	511	31	31	
1	0	0	0	0	503	508	511	511	31	31	
2	0	0	0	0	498	506	511	508	31	31	
3	0	0	0	0	498	507	512	508	31	31	
4	0	0	0	0	500	512	511	513	31	31	
5	0	0	0	0	503	514	511	511	31	31	
6	0	0	0	0	506	515	512	511	31	31	
7	0	0	0	0	505	515	511	509	31	31	
8	0	0	0	0	507	512	512	510	31	31	
9	0	0	0	0	507	513	511	511	31	31	
10	0	0	0	0	505	515	512	510	31	31	
11	0	0	0	0	505	511	508	508	31	32	
12	0	0	0	0	505	512	512	509	31	32	
13	0	0	0	0	504	513	511	511	31	32	
14	0	0	0	0	505	512	510	511	31	31	
15	0	0	0	0	503	510	512	509	31	31	
0	0	0	0	0	500	512	515	508	31	31	
1	0	0	0	0	502	515	513	510	31	31	
2	0	0	0	0	504	516	513	511	31	31	
3	0	0	0	0	504	516	511	511	31	31	
4	0	0	0	0	505	513	511	508	31	31	
5	0	0	0	0	506	513	510	509	31	31	
6	0	0	0	0	504	512	511	509	31	31	
7	0	0	0	0	504	511	511	508	31	31	
8	0	0	0	0	505	517	512	507	31	31	
9	0	0	0	0	505	516	510	507	31	32	
10	0	0	0	0	503	514	511	509	31	32	
11	0	0	0	0	502	509	509	509	31	32	
12	0	0	0	0	499	510	510	512	31	32	
13	0	0	0	0	499	513	511	511	31	32	
14	0	0	0	0	502	514	512	509	31	31	
15	0	0	0	0	503	514	514	512	31	31	
0	0	0	0	0	502	509	513	513	31	31	
1	0	0	0	0	504	507	515	513	31	31	
2	0	0	0	0	502	508	513	510	31	31	
3	0	0	0	0	500	506	511	509	31	31	
4	0	0	0	0	502	509	512	511	31	31	
5	0	0	0	0	503	511	514	511	31	31	
6	0	0	0	0	505	511	514	510	31	31	
7	0	0	0	0	505	513	512	510	31	31	
8	0	0	0	0	504	516	511	509	31	31	
9	0	0	0	0	504	513	512	509	31	31	
10	0	0	0	0	503	511	513	510	31	31	
11	0	0	0	0	502	509	511	509	31	32	
12	0	0	0	0	502	512	511	510	31	32	
13	0	0	0	0	501	515	511	512	31	32	
14	0	0	0	0	501	519	512	511	31	32	
15	0	0	0	0	502	515	510	511	31	32	
0	0	0	0	0	507	513	510	511	31	31	
1	0	0	0	0	507	511	512	509	31	31	
2	0	0	0	0	503	511	512	510	31	31	
3	0	0	0	0	503	511	512	511	31	31	
4	0	0	0	0	502	512	511	510	31	31	
5	0	0	0	0	504	512	510	508	31	31	
6	0	0	0	0	500	514	511	510	31	31	
7	0	0	0	0	502	515	511	513	31	31	
8	0	0	0	0	502	515	512	509	31	32	
9	0	0	0	0	504	511	511	509	31	31	
10	0	0	0	0	505	515	511	508	31	31	
11	0	0	0	0	500	514	512	511	31	31	
12	0	0	0	0	497	514	513	509	31	32	
13	0	0	0	0	497	511	510	511	31	32	
14	0	0	0	0	500	511	511	512	31	31	
15	0	0	0	0	506	509	509	509	31	32	
0	0	0	0	0	508	511	510	510	31	31	
1	0	0	0	0	505	512	510	510	31	31	
2	0	0	0	0	507	512	512	511	31	31	
3	0	0	0	0	505	511	509	511	31	31	
4	0	0	0	0	503	512	512	510	31	31	
5	0	0	0	0	503	512	512	510	31	32	
6	0	0	0	0	503	512	510	510	31	31	
7	0	0	0	0	505	511	512	507	31	31	
8	0	0	0	0	504	511	510	508	31	32	
9	0	0	0	0	500	511	508	510	31	31	
10	0	0	0	0	498	511	511	513	31	31	
11	0	0	0	0	502	512	511	512	31	31	
12	0	0	0	0	500	512	512	511	31	31	
13	0	0	0	0	500	514	513	509	31	32	
14	0	0	0	0	499	514	512	509	31	32	
15	0	0	0	0	501	513	513	510	31	32	
0	0	0	0	0	502	514	512	511	31	31	
1	0	0	0	0	503	513	513	510	31	31	
2	0	0	0	0	504	513	514	510	31	31	
3	0	0	0	0	508	511	512	510	31	31	
4	0	0	0	0	509	514	515	508	31	31	
5	0	0	0	0	507	515	512	511	31	32	
6	0	0	0	0	505	515	512	507	31	32	
7	0	0	0	0	501	519	512	510	31	32	
8	0	0	0	0	499	519	511	511	31	31	
9	0	0	0	0	504	516	511	511	31	31	
10	0	0	0	0	503	508	510	509	31	31	
11	0	0	0	0	503	505	510	513	31	31	
12	0	0	0	0	505	504	512	513	31	31	
13	0	0	0	0	504	506	511	511	31	31	
14	0	0	0	0	504	503	511	512	31	31	
15	0	0	0	0	503	502	513	508	31	32	
0	0	0	0	0	501	505	510	508	31	32	
1	0	0	0	0	504	513	512	510	31	31	
2	0	0	0	0	503	512	509	511	31	31	
3	0	0	0	0	499	512	511	512	31	31	
4	0	0	0	0	497	516	513	513	31	31	
5	0	0	0	0	500	515	513	509	31	31	
6	0	0	0	0	500	516	512	513	31	32	
7	0	0	0	0	503	516	510	512	31	32	
8	0	0	0	0	503	517	512	506	31	32	
9	0	0	0	0	503	516	512	509	31	31	
10	0	0	0	0	505	517	514	509	31	31	
11	0	0	0	0	506	516	511	509	31	31	
12	0	0	0	0	507	511	511	510	31	31	
13	0	0	0	0	505	512	512	509	31	31	
14	0	0	0	0	504	514	512	508	31	32	
15	0	0	0	0	505	514	512	508	31	32	
0	0	0	0	0	504	511	511	511	31	31	
1	0	0	0	0	504	511	512	510	31	31	
2	0	0	0	0	502	510	510	510	31	31	
3	0	0	0	0	503	511	508	510	31	31	
4	0	0	0	0	504	513	510	510	31	31	
5	0	0	0	0	504	515	510	510	31	31	
6	0	0	0	0	504	517	513	510	31	32	
7	0	0	0	0	504	519	513	511	31	32	
8	0	0	0	0	504	519	513	510	31	31	
9	0	0	0	0	504	515	513	513	31	31	
10	0	0	0	0	506	513	512	512	31	31	
11	0	0	0	0	504	514	511	509	31	31	
12	0	0	0	0	504	507	512	508	31	31	
13	0	0	0	0	504	505	512	510	31	31	
14	0	0	0	0	502	502	511	510	31	32	
15	0	0	0	0	503	502	511	510	31	32	
0	0	0	0	0	504	502	512	509	31	31	
1	0	0	0	0	505	504	509	508	31	31	
2	0	0	0	0	505	510	509	508	31	31	
3	0	0	0	0	502	516	511	511	31	31	
4	0	0	0	0	500	516	512	512	31	31	
5	0	0	0	0	499	513	511	514	31	31	
6	0	0	0	0	499	514	513	512	31	31	
7	0	0	0	0	499	512	511	511	31	31	
8	0	0	0	0	502	515	515	508	31	31	
9	0	0	0	0	504	512	511	508	31	31	
10	0	0	0	0	504	516	513	512	31	31	
11	0	0	0	0	505	515	513	512	31	31	
12	0	0	0	0	504	513	511	510	31	31	
13	0	0	0	0	504	515	511	508	31	32	
14	0	0	0	0	503	513	510	509	31	32	
15	0	0	0	0	500	511	511	508	31	31	
0	0	0	0	0	500	512	513	510	31	31	
1	0	0	0	0	504	510	512	509	31	31	
2	0	0	0	0	505	511	513	508	31	31	
3	0	0	0	0	506	515	513	510	31	32	
4	0	0	0	0	507	514	513	509	31	32	
5	0	0	0	0	507	512	510	510	31	32	
6	0	0	0	0	507	511	511	510	31	32	
7	0	0	0	0	502	515	510	510	31	32	
8	0	0	0	0	503	515	512	510	31	31	
9	0	0	0	0	502	512	512	511	31	31	
10	0	0	0	0	502	510	512	511	31	31	
11	0	0	0	0	505	512	509	512	31	31	
12	0	0	0	0	504	515	511	509	31	31	
13	0	0	0	0	505	516	511	507	31	31	
14	0	0	0	0	503	515	509	508	31	31	
15	0	0	0	0	504	512	513	508	31	31	
0	0	0	0	0	501	505	512	512	31	31	
1	0	0	0	0	502	502	512	511	31	31	
2	0	0	0	0	502	505	512	513	31	31	
3	0	0	0	0	504	508	514	509	31	32	
4	0	0	0	0	507	512	514	507	31	32	
5	0	0	0	0	504	511	511	511	31	32	
6	0	0	0	0	506	511	513	510	31	32	
7	0	0	0	0	501	511	512	511	31	31	
8	0	0	0	0	502	512	512	511	31	31	
9	0	0	0	0	504	515	513	509	31	31	
10	0	0	0	0	506	515	510	508	31	31	
11	0	0	0	0	505	512	511	512	31	31	
12	0	0	0	0	503	513	507	510	31	31	
13	0	0	0	0	499	515	510	509	31	32	
14	0	0	0	0	500	518	512	512	31	31	
15	0	0	0	0	499	517	513	508	31	31	
0	0	0	0	0	502	518	512	508	31	31	
1	0	0	0	0	503	513	511	508	31	32	
2	0	0	0	0	505	508	510	511	31	31	
3	0	0	0	0	507	504	511	512	31	32	
4	0	0	0	0	508	507	511	512	31	31	
5	0	0	0	0	508	511	512	508	31	31	
6	0	0	0	0	507	514	512	510	31	31	
7	0	0	0	0	504	512	510	508	31	32	
8	0	0	0	0	506	513	512	510	31	32	
9	0	0	0	0	502	515	513	510	31	31	
10	0	0	0	0	503	515	512	510	31	31	
11	0	0	0	0	501	514	513	511	31	31	
12	0	0	0	0	503	515	511	513	31	31	
13	0	0	0	0	502	516	512	511	31	31	
14	0	0	0	0	502	515	511	510	31	31	
15	0	0	0	0	502	512	512	511	31	31	
0	0	0	0	0	504	507	511	509	31	31	
1	0	0	0	0	503	511	512	509	31	31	
2	0	0	0	0	503	515	513	511	31	32	
3	0	0	0	0	503	518	511	511	31	32	
4	0	0	0	0	501	518	511	511	31	32	
5	0	0	0	0	503	518	513	510	31	31	
6	0	0	0	0	502	516	511	509	31	32	
7	0	0	0	0	504	510	511	512	31	31	
8	0	0	0	0	501	504	510	509	31	31	
9	0	0	0	0	502	507	512	509	31	31	
10	0	0	0	0	503	508	513	508	31	31	
11	0	0	0	0	504	506	514	508	31	32	
12	0	0	0	0	504	504	514	508	31	31	
13	0	0	0	0	504	504	513	512	31	32	
14	0	0	0	0	503	509	510	510	31	32	
15	0	0	0	0	504	511	508	511	31	32	
0	0	0	0	0	506	515	511	511	31	31	
1	0	0	0	0	507	515	511	511	31	31	
2	0	0	0	0	504	518	511	510	31	31	
3	0	0	0	0	505	518	511	513	31	31	
4	0	0	0	0	504	516	512	510	31	31	
5	0	0	0	0	504	513	512	505	31	31	
6	0	0	0	0	505	511	513	508	31	31	
7	0	0	0	0	504	513	511	509	31	32	
8	0	0	0	0	502	513	513	511	31	32	
9	0	0	0	0	505	512	512	509	31	31	
10	0	0	0	0	505	511	511	508	31	31	
11	0	0	0	0	504	510	511	508	31	31	
12	0	0	0	0	504	507	510	509	31	31	
13	0	0	0	0	504	511	510	510	31	32	
14	0	0	0	0	502	512	512	510	31	31	
15	0	0	0	0	503	515	512	511	31	31	
0	0	0	0	0	502	515	510	510	31	32	
1	0	0	0	0	503	515	509	511	31	31	
2	0	0	0	0	502	515	510	511	31	32	
3	0	0	0	0	504	515	512	511	31	32	
4	0	0	0	0	505	514	512	509	31	32	
5	0	0	0	0	506	511	513	510	31	31	
6	0	0	0	0	505	512	510	511	31	31	
7	0	0	0	0	502	510	512	512	31	31	
8	0	0	0	0	504	511	511	510	31	31	
9	0	0	0	0	503	512	515	510	31	31	
10	0	0	0	0	504	515	515	510	31	31	
11	0	0	0	0	505	518	511	510	31	31	
12	0	0	0	0	506	519	511	509	31	31	
13	0	0	0	0	505	512	511	510	31	32	
14	0	0	0	0	506	508	509	509	31	31	
15	0	0	0	0	504	506	512	510	31	31	
0	0	0	0	0	503	508	512	511	31	32	
1	0	0	0	0	503	508	512	510	31	32	
2	0	0	0	0	505	508	511	510	31	32	
3	0	0	0	0	507	511	512	514	31	32	
4	0	0	0	0	504	516	512	512	31	31	
5	0	0	0	0	505	515	511	509	31	31	
6	0	0	0	0	509	518	510	511	31	31	
7	0	0	0	0	507	516	512	510	31	31	
8	0	0	0	0	505	517	512	509	31	31	
9	0	0	0	0	505	516	513	512	31	31	
10	0	0	0	0	505	512	510	509	31	31	
11	0	0	0	0	505	506	514	510	31	31	
12	0	0	0	0	504	505	512	510	31	32	
13	0	0	0	0	504	504	511	509	31	32	
14	0	0	0	0	505	509	512	511	31	31	
15	0	0	0	0	504	511	512	510	31	31	
0	0	0	0	0	502	509	513	507	31	31	
1	0	0	0	0	502	513	511	511	31	31	
2	0	0	0	0	500	514	511	508	31	31	
3	0	0	0	0	502	515	510	508	31	31	
4	0	0	0	0	507	514	511	511	31	31	
5	0	0	0	0	507	513	511	510	31	32	
6	0	0	0	0	505	516	511	509	31	32	
7	0	0	0	0	503	511	512	510	31	32	
8	0	0	0	0	502	510	512	511	31	31	
9	0	0	0	0	503	508	510	513	31	32	
10	0	0	0	0	502	512	511	511	31	31	
11	0	0	0	0	501	516	512	513	31	31	
12	0	0	0	0	500	518	513	513	31	32	
13	0	0	0	0	504	521	514	505	31	31	
14	0	0	0	0	505	520	514	508	31	31	
15	0	0	0	0	506	516	513	510	31	31	
0	0	0	0	0	505	515	510	510	31	32	
1	0	0	0	0	505	515	511	511	31	31	
2	0	0	0	0	505	513	509	512	31	31	
3	0	0	0	0	505	512	510	512	31	31	
4	0	0	0	0	506	512	511	511	31	31	
5	0	0	0	0	506	512	510	510	31	31	
6	0	0	0	0	504	516	511	509	31	32	
7	0	0	0	0	503	511	512	511	31	31	
8	0	0	0	0	504	507	513	509	31	31	
9	0	0	0	0	505	505	514	510	31	31	
10	0	0	0	0	504	504	510	510	31	31	
11	0	0	0	0	504	508	511	510	31	31	
12	0	0	0	0	503	512	512	509	31	31	
13	0	0	0	0	501	513	512	508	31	31	
14	0	0	0	0	501	510	513	510	31	31	
15	0	0	0	0	503	508	513	511	31	32	
0	0	0	0	0	506	512	512	511	31	32	
1	0	0	0	0	504	510	514	509	31	31	
2	0	0	0	0	505	511	511	508	31	31	
3	0	0	0	0	507	512	511	509	31	31	
4	0	0	0	0	506	518	510	507	31	31	
5	0	0	0	0	503	518	510	508	31	31	
6	0	0	0	0	502	515	511	511	31	32	
7	0	0	0	0	504	512	511	510	31	32	
8	0	0	0	0	508	510	513	512	31	32	
9	0	0	0	0	507	510	513	508	31	31	
10	0	0	0	0	504	511	511	509	31	31	
11	0	0	0	0	500	509	511	511	31	31	
12	0	0	0	0	499	509	511	514	31	31	
13	0	0	0	0	503	515	511	512	31	31	
14	0	0	0	0	505	516	512	508	31	31	
15	0	0	0	0	506	514	511	510	31	31	
0	0	0	0	0	506	514	514	512	31	31	
1	0	0	0	0	505	514	510	511	31	31	
2	0	0	0	0	502	513	510	508	31	31	
3	0	0	0	0	504	510	512	511	31	31	
4	0	0	0	0	504	508	512	510	31	31	
5	0	0	0	0	505	509	513	512	31	31	
6	0	0	0	0	501	513	513	509	31	31	
7	0	0	0	0	503	513	511	508	31	31	
8	0	0	0	0	504	516	512	510	31	31	
9	0	0	0	0	505	516	513	511	31	32	
10	0	0	0	0	506	517	512	511	31	32	
11	0	0	0	0	502	521	510	510	31	32	
12	0	0	0	0	504	517	512	510	31	32	
13	0	0	0	0	504	515	514	510	31	32	
14	0	0	0	0	501	508	513	509	31	32	
15	0	0	0	0	502	504	512	511	31	31	
0	0	0	0	0	500	503	511	510	31	31	
1	0	0	0	0	501	507	510	514	31	31	
2	0	0	0	0	502	510	512	505	31	31	
3	0	0	0	0	500	509	513	507	31	31	
4	0	0	0	0	501	511	513	507	31	31	
5	0	0	0	0	501	512	511	511	31	32	
6	0	0	0	0	502	514	510	511	31	32	
7	0	0	0	0	501	517	509	510	31	32	
8	0	0	0	0	503	516	511	511	31	31	
9	0	0	0	0	501	515	511	510	31	31	
10	0	0	0	0	504	515	512	512	31	31	
11	0	0	0	0	503	513	511	510	31	31	
12	0	0	0	0	503	516	510	510	31	31	
13	0	0	0	0	503	517	510	510	31	32	
14	0	0	0	0	504	514	510	508	31	31	
15	0	0	0	0	499	515	511	512	31	32	
0	0	0	0	0	502	515	512	511	31	31	
1	0	0	0	0	504	515	514	509	31	31	
2	0	0	0	0	506	517	514	509	31	31	
3	0	0	0	0	506	512	511	510	31	31	
4	0	0	0	0	504	507	513	509	31	31	
5	0	0	0	0	504	503	512	512	31	31	
6	0	0	0	0	504	503	511	512	31	32	
7	0	0	0	0	505	506	511	510	31	32	
8	0	0	0	0	507	511	510	510	31	31	
9	0	0	0	0	505	513	511	509	31	31	
10	0	0	0	0	502	514	511	508	31	32	
11	0	0	0	0	504	511	510	509	31	31	
12	0	0	0	0	504	512	512	511	31	31	
13	0	0	0	0	500	510	510	510	31	32	
14	0	0	0	0	504	510	511	510	31	31	
15	0	0	0	0	501	515	512	511	31	31	
0	0	0	0	0	500	515	515	511	31	31	
1	0	0	0	0	499	516	511	510	31	31	
2	0	0	0	0	502	518	513	510	31	31	
3	0	0	0	0	506	513	511	513	31	32	
4	0	0	0	0	504	511	512	510	31	31	
5	0	0	0	0	504	513	513	510	31	31	
6	0	0	0	0	505	511	514	511	31	31	
7	0	0	0	0	504	512	511	511	31	31	
8	0	0	0	0	505	511	510	511	31	31	
9	0	0	0	0	504	508	511	509	31	31	
10	0	0	0	0	500	506	512	510	31	32	
11	0	0	0	0	499	509	513	512	31	32	
12	0	0	0	0	499	510	512	508	31	31	
13	0	0	0	0	499	513	511	508	31	31	
14	0	0	0	0	504	517	512	509	31	32	
15	0	0	0	0	505	516	511	510	31	32	
0	0	0	0	0	500	515	511	509	31	32	
1	0	0	0	0	505	516	512	512	31	31	
2	0	0	0	0	503	515	510	510	31	31	
3	0	0	0	0	503	512	513	512	31	31	
4	0	0	0	0	500	510	512	510	31	31	
5	0	0	0	0	499	511	512	509	31	31	
6	0	0	0	0	501	513	511	511	31	31	
7	0	0	0	0	504	517	512	511	31	31	
8	0	0	0	0	507	517	512	510	31	31	
9	0	0	0	0	509	515	511	504	31	32	
10	0	0	0	0	504	515	513	509	31	32	
11	0	0	0	0	506	506	511	511	31	32	
12	0	0	0	0	506	505	513	510	31	31	
13	0	0	0	0	505	503	513	512	31	31	
14	0	0	0	0	504	501	511	510	31	31	
15	0	0	0	0	504	504	512	513	31	31	
0	0	0	0	0	504	509	511	510	31	31	
1	0	0	0	0	502	516	510	511	31	31	
2	0	0	0	0	503	521	511	510	31	31	
3	0	0	0	0	507	517	511	510	31	31	
4	0	0	0	0	505	518	510	509	31	31	
5	0	0	0	0	502	517	511	511	31	32	
6	0	0	0	0	500	519	511	509	31	32	
7	0	0	0	0	500	516	513	509	31	32	
8	0	0	0	0	499	512	510	509	31	32	
9	0	0	0	0	503	512	512	511	31	31	
10	0	0	0	0	504	510	513	511	31	31	
11	0	0	0	0	504	512	512	510	31	31	
12	0	0	0	0	504	511	512	510	31	31	
13	0	0	0	0	502	513	512	509	31	31	
14	0	0	0	0	504	513	513	511	31	31	
15	0	0	0	0	504	512	513	509	31	31	
0	0	0	0	0	506	511	513	508	31	31	
1	0	0	0	0	506	512	513	510	31	31	
2	0	0	0	0	504	513	513	510	31	31	
3	0	0	0	0	504	513	511	509	31	31	
4	0	0	0	0	500	510	511	510	31	31	
5	0	0	0	0	497	508	511	511	31	31	
6	0	0	0	0	503	506	511	508	31	31	
7	0	0	0	0	507	503	511	510	31	31	
8	0	0	0	0	504	507	512	510	31	31	
9	0	0	0	0	507	510	510	508	31	31	
10	0	0	0	0	504	512	511	508	31	31	
11	0	0	0	0	506	513	510	510	31	31	
12	0	0	0	0	504	514	510	510	31	32	
13	0	0	0	0	504	518	513	511	31	32	
14	0	0	0	0	507	518	512	514	31	32	
15	0	0	0	0	505	517	512	510	31	31	
0	0	0	0	0	506	515	512	512	31	31	
1	0	0	0	0	503	513	511	513	31	31	
2	0	0	0	0	502	511	512	511	31	31	
3	0	0	0	0	500	508	510	511	31	31	
4	0	0	0	0	503	511	511	511	31	32	
5	0	0	0	0	504	510	510	510	31	32	
6	0	0	0	0	503	511	512	509	31	32	
7	0	0	0	0	504	511	512	507	31	31	
8	0	0	0	0	500	513	511	511	31	31	
9	0	0	0	0	500	514	514	508	31	31	
10	0	0	0	0	500	514	515	509	31	32	
11	0	0	0	0	504	517	510	508	31	31	
12	0	0	0	0	507	519	510	509	31	31	
13	0	0	0	0	508	515	510	511	31	32	
14	0	0	0	0	502	510	511	509	31	32	
15	0	0	0	0	504	509	513	511	31	31	
0	0	0	0	0	505	507	512	511	31	31	
1	0	0	0	0	505	510	513	509	31	31	
2	0	0	0	0	504	512	512	512	31	32	
3	0	0	0	0	502	514	512	510	31	31	
4	0	0	0	0	500	514	511	510	31	31	
5	0	0	0	0	501	512	511	509	31	32	
6	0	0	0	0	504	510	511	510	31	31	
7	0	0	0	0	505	510	511	508	31	31	
8	0	0	0	0	504	511	511	511	31	31	
9	0	0	0	0	503	511	513	511	31	31	
10	0	0	0	0	501	510	511	511	31	31	
11	0	0	0	0	503	511	512	509	31	32	
12	0	0	0	0	503	511	510	510	31	31	
13	0	0	0	0	504	513	512	507	31	32	
14	0	0	0	0	505	509	512	510	31	32	
15	0	0	0	0	507	511	512	511	31	31	
0	0	0	0	0	506	516	512	510	31	31	
1	0	0	0	0	502	519	512	512	31	31	
2	0	0	0	0	501	521	510	511	31	31	
3	0	0	0	0	504	519	510	507	31	31	
4	0	0	0	0	501	515	512	511	31	31	
5	0	0	0	0	504	514	512	509	31	31	
6	0	0	0	0	506	513	512	512	31	31	
7	0	0	0	0	500	515	510	512	31	31	
8	0	0	0	0	502	508	512	511	31	31	
9	0	0	0	0	505	508	512	509	31	31	
10	0	0	0	0	507	506	511	508	31	31	
11	0	0	0	0	504	505	512	509	31	31	
12	0	0	0	0	502	504	512	511	31	31	
13	0	0	0	0	505	507	512	512	31	31	
14	0	0	0	0	506	509	512	510	31	31	
15	0	0	0	0	504	512	511	508	31	32	
0	0	0	0	0	499	512	513	509	31	32	
1	0	0	0	0	501	514	513	511	31	32	
2	0	0	0	0	499	516	512	511	31	32	
3	0	0	0	0	504	516	511	512	31	31	
4	0	0	0	0	507	516	512	510	31	31	
5	0	0	0	0	505	509	511	511	31	31	
6	0	0	0	0	506	507	511	512	31	31	
7	0	0	0	0	506	507	510	511	31	31	
8	0	0	0	0	503	513	511	508	31	31	
9	0	0	0	0	504	519	512	510	31	31	
10	0	0	0	0	501	520	512	511	31	31	
11	0	0	0	0	499	522	512	508	31	31	
12	0	0	0	0	502	519	512	509	31	31	
13	0	0	0	0	504	513	511	510	31	31	
14	0	0	0	0	507	508	512	509	31	31	
15	0	0	0	0	504	508	512	510	31	32	
0	0	0	0	0	504	513	511	506	31	32	
1	0	0	0	0	502	516	511	510	31	32	
2	0	0	0	0	502	517	511	513	31	31	
3	0	0	0	0	503	512	511	509	31	31	
4	0	0	0	0	501	508	512	508	31	31	
5	0	0	0	0	504	504	512	509	31	32	
6	0	0	0	0	507	502	511	510	31	31	
7	0	0	0	0	508	504	513	507	31	31	
8	0	0	0	0	508	507	513	508	31	31	
9	0	0	0	0	505	509	511	508	31	31	
10	0	0	0	0	507	511	513	512	31	31	
11	0	0	0	0	504	513	513	512	31	32	
12	0	0	0	0	508	515	510	510	31	32	
13	0	0	0	0	507	517	513	512	31	31	
14	0	0	0	0	507	516	511	511	31	31	
15	0	0	0	0	506	518	513	511	31	31	
0	0	0	0	0	505	519	512	513	31	31	
1	0	0	0	0	507	520	512	511	31	32	
2	0	0	0	0	506	516	509	513	31	31	
3	0	0	0	0	505	518	511	509	31	31	
4	0	0	0	0	505	519	511	509	31	31	
5	0	0	0	0	503	515	510	508	31	31	
6	0	0	0	0	504	512	511	508	31	31	
7	0	0	0	0	506	508	513	511	31	31	
8	0	0	0	0	506	505	514	510	31	31	
9	0	0	0	0	508	505	511	511	31	31	
10	0	0	0	0	505	508	510	509	31	31	
11	0	0	0	0	504	510	512	508	31	31	
12	0	0	0	0	504	511	511	508	31	31	
13	0	0	0	0	505	514	512	508	31	32	
14	0	0	0	0	504	513	510	510	31	32	
15	0	0	0	0	505	512	510	511	31	32	
0	0	0	0	0	504	508	510	513	31	31	
1	0	0	0	0	502	508	509	512	31	31	
2	0	0	0	0	504	512	513	511	31	31	
3	0	0	0	0	505	512	510	509	31	31	
4	0	0	0	0	507	514	514	510	31	32	
5	0	0	0	0	504	516	511	511	31	31	
6	0	0	0	0	499	514	513	511	31	32	
7	0	0	0	0	500	515	513	512	31	31	
8	0	0	0	0	496	515	510	510	31	31	
9	0	0	0	0	499	513	510	511	31	31	
10	0	0	0	0	502	511	512	510	31	31	
11	0	0	0	0	504	509	513	509	31	31	
12	0	0	0	0	505	507	512	509	31	32	
13	0	0	0	0	505	511	513	510	31	31	
14	0	0	0	0	506	513	513	512	31	32	
15	0	0	0	0	507	512	509	511	31	32	
0	0	0	0	0	508	514	512	511	31	31	
1	0	0	0	0	504	515	512	508	31	31	
2	0	0	0	0	504	516	515	506	31	31	
3	0	0	0	0	507	518	513	508	31	31	
4	0	0	0	0	505	517	512	509	31	31	
5	0	0	0	0	506	519	511	510	31	31	
6	0	0	0	0	504	516	510	510	31	31	
7	0	0	0	0	503	513	509	509	31	31	
8	0	0	0	0	502	510	511	511	31	31	
9	0	0	0	0	502	508	510	511	31	32	
10	0	0	0	0	498	507	512	510	31	32	
11	0	0	0	0	499	505	512	511	31	32	
12	0	0	0	0	504	507	512	509	31	32	
13	0	0	0	0	507	505	513	512	31	32	
14	0	0	0	0	506	506	511	512	31	32	
15	0	0	0	0	506	512	511	509	31	32	
0	0	0	0	0	502	512	511	512	31	31	
1	0	0	0	0	500	512	511	510	31	32	
2	0	0	0	0	502	510	511	508	31	31	
3	0	0	0	0	503	513	512	509	31	31	
4	0	0	0	0	505	516	511	509	31	31	
5	0	0	0	0	505	515	512	510	31	31	
6	0	0	0	0	503	516	512	509	31	31	
7	0	0	0	0	503	514	513	511	31	31	
8	0	0	0	0	503	516	513	511	31	31	
9	0	0	0	0	500	515	513	509	31	31	
10	0	0	0	0	499	513	510	513	31	31	
11	0	0	0	0	500	513	510	511	31	31	
12	0	0	0	0	501	515	510	509	31	32	
13	0	0	0	0	502	516	511	510	31	32	
14	0	0	0	0	500	515	512	507	31	32	
15	0	0	0	0	499	514	513	511	31	31	
0	0	0	0	0	504	511	512	510	31	31	
1	0	0	0	0	507	511	512	512	31	31	
2	0	0	0	0	508	511	513	510	31	32	
3	0	0	0	0	507	510	512	509	31	32	
4	0	0	0	0	505	509	511	512	31	31	
5	0	0	0	0	506	511	513	512	31	31	
6	0	0	0	0	504	513	513	512	31	31	
7	0	0	0	0	505	513	513	514	31	31	
8	0	0	0	0	504	511	511	510	31	31	
9	0	0	0	0	504	508	510	507	31	31	
10	0	0	0	0	504	509	508	508	31	31	
11	0	0	0	0	505	512	513	510	31	31	
12	0	0	0	0	505	515	513	512	31	32	
13	0	0	0	0	499	513	510	512	31	31	
14	0	0	0	0	498	514	512	508	31	32	
15	0	0	0	0	496	512	513	508	31	31	
0	0	0	0	0	499	511	512	510	31	31	
1	0	0	0	0	502	511	513	511	31	32	
2	0	0	0	0	502	509	512	511	31	31	
3	0	0	0	0	505	510	511	511	31	31	
4	0	0	0	0	504	508	510	508	31	32	
5	0	0	0	0	507	511	511	509	31	32	
6	0	0	0	0	504	515	508	511	31	31	
7	0	0	0	0	504	515	511	510	31	32	
8	0	0	0	0	502	519	515	511	31	32	
9	0	0	0	0	503	518	513	513	31	32	
10	0	0	0	0	501	516	511	511	31	31	
11	0	0	0	0	503	513	511	510	31	31	
12	0	0	0	0	505	510	510	511	31	31	
13	0	0	0	0	505	505	510	513	31	31	
14	0	0	0	0	502	507	513	510	31	31	
15	0	0	0	0	502	509	512	509	31	31	
0	0	0	0	0	502	510	511	508	31	31	
1	0	0	0	0	502	511	512	510	31	31	
2	0	0	0	0	503	513	510	512	31	31	
3	0	0	0	0	504	515	512	508	31	31	
4	0	0	0	0	505	515	512	508	31	31	
5	0	0	0	0	504	513	512	511	31	31	
6	0	0	0	0	504	516	513	509	31	32	
7	0	0	0	0	505	516	514	510	31	31	
8	0	0	0	0	501	514	514	512	31	31	
9	0	0	0	0	502	512	508	510	31	31	
10	0	0	0	0	501	510	511	510	31	32	
11	0	0	0	0	503	506	512	508	31	32	
12	0	0	0	0	504	504	512	508	31	31	
13	0	0	0	0	505	505	513	510	31	31	
14	0	0	0	0	504	510	511	509	31	31	
15	0	0	0	0	500	512	512	507	31	31	
0	0	0	0	0	497	514	510	509	31	31	
1	0	0	0	0	502	519	513	510	31	32	
2	0	0	0	0	504	517	512	510	31	32	
3	0	0	0	0	507	513	512	510	31	32	
4	0	0	0	0	507	511	510	510	31	31	
5	0	0	0	0	506	511	510	511	31	31	
6	0	0	0	0	507	513	509	511	31	31	
7	0	0	0	0	504	516	511	511	31	31	
8	0	0	0	0	499	517	515	512	31	31	
9	0	0	0	0	500	516	512	511	31	31	
10	0	0	0	0	500	513	511	512	31	31	
11	0	0	0	0	502	515	513	510	31	31	
12	0	0	0	0	504	507	514	510	31	31	
13	0	0	0	0	502	505	513	509	31	31	
14	0	0	0	0	504	507	512	511	31	32	
15	0	0	0	0	507	513	510	510	31	32	
0	0	0	0	0	505	518	512	511	31	32	
1	0	0	0	0	503	518	510	509	31	31	
2	0	0	0	0	502	516	510	511	31	31	
3	0	0	0	0	503	514	510	512	31	31	
4	0	0	0	0	506	508	512	513	31	31	
5	0	0	0	0	506	508	511	513	31	31	
6	0	0	0	0	504	505	512	507	31	31	
7	0	0	0	0	502	509	511	507	31	31	
8	0	0	0	0	503	514	511	509	31	32	
9	0	0	0	0	503	514	511	511	31	32	
10	0	0	0	0	500	508	513	509	31	32	
11	0	0	0	0	500	506	512	509	31	31	
12	0	0	0	0	499	507	512	510	31	31	
13	0	0	0	0	503	513	510	511	31	31	
14	0	0	0	0	503	517	512	509	31	31	
15	0	0	0	0	504	521	512	508	31	31	
0	0	0	0	0	502	523	512	510	31	31	
1	0	0	0	0	504	520	513	509	31	32	
2	0	0	0	0	504	519	512	512	31	32	
3	0	0	0	0	505	516	512	511	31	32	
4	0	0	0	0	503	511	512	510	31	32	
5	0	0	0	0	504	511	513	511	31	31	
6	0	0	0	0	504	510	509	511	31	32	
7	0	0	0	0	506	505	512	511	31	31	
8	0	0	0	0	505	507	511	510	31	31	
9	0	0	0	0	504	507	510	510	31	31	
10	0	0	0	0	504	506	510	510	31	32	
11	0	0	0	0	507	506	511	512	31	32	
12	0	0	0	0	508	509	512	510	31	31	
13	0	0	0	0	505	511	511	510	31	31	
14	0	0	0	0	503	511	511	509	31	31	
15	0	0	0	0	504	513	511	509	31	31	
0	0	0	0	0	501	515	513	510	31	31	
1	0	0	0	0	499	515	512	511	31	31	
2	0	0	0	0	502	515	513	511	31	31	
3	0	0	0	0	502	514	510	509	31	31	
4	0	0	0	0	502	519	511	511	31	32	
5	0	0	0	0	502	521	514	510	31	32	
6	0	0	0	0	503	521	512	508	31	32	
7	0	0	0	0	504	514	512	511	31	31	
8	0	0	0	0	503	505	512	511	31	31	
9	0	0	0	0	499	504	512	511	31	31	
10	0	0	0	0	503	512	511	510	31	31	
11	0	0	0	0	504	517	512	509	31	31	
12	0	0	0	0	504	515	511	510	31	31	
13	0	0	0	0	505	514	512	510	31	31	
14	0	0	0	0	502	510	512	508	31	31	
15	0	0	0	0	502	511	512	508	31	31	
0	0	0	0	0	503	512	512	508	31	31	
1	0	0	0	0	501	511	511	509	31	31	
2	0	0	0	0	501	507	511	511	31	31	
3	0	0	0	0	504	509	510	511	31	31	
4	0	0	0	0	503	510	512	511	31	31	
5	0	0	0	0	503	511	511	511	31	31	
6	0	0	0	0	503	512	510	512	31	32	
7	0	0	0	0	502	516	511	512	31	32	
8	0	0	0	0	503	515	512	516	31	31	
9	0	0	0	0	503	511	510	512	31	31	
10	0	0	0	0	504	513	511	508	31	32	
11	0	0	0	0	505	511	513	507	31	32	
12	0	0	0	0	505	510	512	509	31	31	
13	0	0	0	0	503	510	511	508	31	31	
14	0	0	0	0	505	511	513	508	31	31	
15	0	0	0	0	505	513	512	509	31	31	
0	0	0	0	0	503	513	512	511	31	31	
1	0	0	0	0	505	511	512	512	31	31	
2	0	0	0	0	502	512	511	514	31	31	
3	0	0	0	0	504	512	511	511	31	31	
4	0	0	0	0	503	513	511	511	31	32	
5	0	0	0	0	502	511	512	512	31	31	
6	0	0	0	0	504	512	511	509	31	31	
7	0	0	0	0	503	514	511	509	31	31	
8	0	0	0	0	500	515	512	507	31	31	
9	0	0	0	0	504	518	514	511	31	31	
10	0	0	0	0	505	514	513	511	31	31	
11	0	0	0	0	507	512	513	511	31	31	
12	0	0	0	0	504	514	512	508	31	31	
13	0	0	0	0	500	519	511	509	31	32	
14	0	0	0	0	501	519	511	507	31	31	
15	0	0	0	0	502	515	509	510	31	31	
0	0	0	0	0	499	510	511	509	31	31	
1	0	0	0	0	499	507	511	511	31	32	
2	0	0	0	0	500	509	512	511	31	31	
3	0	0	0	0	497	507	510	508	31	32	
4	0	0	0	0	499	508	510	509	31	31	
5	0	0	0	0	501	508	513	512	31	32	
6	0	0	0	0	504	505	513	509	31	31	
7	0	0	0	0	506	510	512	512	31	31	
8	0	0	0	0	509	514	510	511	31	31	
9	0	0	0	0	508	512	511	512	31	31	
10	0	0	0	0	507	510	511	511	31	31	
11	0	0	0	0	504	506	514	510	31	31	
12	0	0	0	0	505	508	511	509	31	31	
13	0	0	0	0	503	511	513	512	31	32	
14	0	0	0	0	505	515	510	511	31	31	
15	0	0	0	0	503	519	510	511	31	31	
0	0	0	0	0	502	517	511	510	31	31	
1	0	0	0	0	503	511	512	511	31	31	
2	0	0	0	0	504	510	511	512	31	31	
3	0	0	0	0	504	510	512	510	31	31	
4	0	0	0	0	504	512	512	509	31	31	
5	0	0	0	0	505	510	513	508	31	31	
6	0	0	0	0	505	511	513	508	31	31	
7	0	0	0	0	505	515	511	508	31	31	
8	0	0	0	0	504	515	513	508	31	31	
9	0	0	0	0	504	519	512	511	31	31	
10	0	0	0	0	502	518	512	510	31	32	
11	0	0	0	0	504	518	511	510	31	32	
12	0	0	0	0	503	516	513	510	31	31	
13	0	0	0	0	504	514	510	510	31	31	
14	0	0	0	0	503	513	512	510	31	31	
15	0	0	0	0	499	512	512	512	31	31	
0	0	0	0	0	499	512	512	511	31	31	
1	0	0	0	0	501	509	512	512	31	32	
2	0	0	0	0	500	509	512	511	31	32	
3	0	0	0	0	502	510	514	515	31	32	
4	0	0	0	0	502	510	510	514	31	32	
5	0	0	0	0	504	512	512	512	31	31	
6	0	0	0	0	504	513	510	506	31	31	
7	0	0	0	0	500	515	511	510	31	31	
8	0	0	0	0	501	514	513	508	31	31	
9	0	0	0	0	503	511	511	510	31	31	
10	0	0	0	0	500	512	511	512	31	31	
11	0	0	0	0	502	513	510	508	31	31	
12	0	0	0	0	502	514	510	510	31	31	
13	0	0	0	0	504	512	511	510	31	31	
14	0	0	0	0	506	511	515	509	31	32	
15	0	0	0	0	506	513	513	509	31	32	
0	0	0	0	0	504	513	512	511	31	31	
1	0	0	0	0	504	515	513	510	31	31	
2	0	0	0	0	505	513	510	513	31	31	
3	0	0	0	0	504	513	509	510	31	31	
4	0	0	0	0	501	512	510	512	31	31	
5	0	0	0	0	503	512	512	509	31	31	
6	0	0	0	0	505	509	514	510	31	31	
7	0	0	0	0	507	510	514	508	31	32	
8	0	0	0	0	508	512	511	509	31	32	
9	0	0	0	0	507	509	512	511	31	31	
10	0	0	0	0	505	509	510	509	31	31	
11	0	0	0	0	505	508	511	514	31	32	
12	0	0	0	0	503	511	512	509	31	32	
13	0	0	0	0	503	511	511	508	31	31	
14	0	0	0	0	502	513	511	509	31	31	
15	0	0	0	0	503	514	512	508	31	31	
0	0	0	0	0	502	513	512	510	31	31	
1	0	0	0	0	500	513	513	512	31	31	
2	0	0	0	0	499	515	511	512	31	32	
3	0	0	0	0	503	512	508	510	31	31	
4	0	0	0	0	504	514	511	510	31	31	
5	0	0	0	0	501	516	509	510	31	31	
6	0	0	0	0	501	511	510	510	31	31	
7	0	0	0	0	501	514	512	509	31	32	
8	0	0	0	0	503	513	511	509	31	32	
9	0	0	0	0	504	514	516	509	31	31	
10	0	0	0	0	502	510	512	509	31	31	
11	0	0	0	0	502	509	511	510	31	31	
12	0	0	0	0	502	512	512	509	31	31	
13	0	0	0	0	502	511	511	508	31	31	
14	0	0	0	0	504	512	510	511	31	31	
15	0	0	0	0	503	512	509	510	31	32	
0	0	0	0	0	503	515	512	509	31	31	
1	0	0	0	0	501	518	513	512	31	32	
2	0	0	0	0	502	518	511	510	31	31	
3	0	0	0	0	504	520	514	513	31	31	
4	0	0	0	0	506	516	513	511	31	31	
5	0	0	0	0	507	509	513	512	31	31	
6	0	0	0	0	508	506	512	511	31	31	
7	0	0	0	0	508	504	512	508	31	31	
8	0	0	0	0	505	503	512	508	31	31	
9	0	0	0	0	505	508	511	508	31	32	
10	0	0	0	0	506	510	511	511	31	32	
11	0	0	0	0	505	514	509	508	31	31	
12	0	0	0	0	504	514	511	510	31	31	
13	0	0	0	0	504	513	512	511	31	31	
14	0	0	0	0	505	510	511	513	31	31	
15	0	0	0	0	504	512	510	511	31	31	
0	0	0	0	0	501	511	512	507	31	31	
1	0	0	0	0	502	515	512	508	31	31	
2	0	0	0	0	500	521	510	513	31	32	
3	0	0	0	0	501	518	509	514	31	32	
4	0	0	0	0	503	514	511	513	31	32	
5	0	0	0	0	505	517	512	505	31	32	
6	0	0	0	0	504	518	511	508	31	31	
7	0	0	0	0	503	512	511	509	31	31	
8	0	0	0	0	502	505	512	510	31	31	
9	0	0	0	0	503	504	511	509	31	31	
10	0	0	0	0	504	506	510	509	31	31	
11	0	0	0	0	503	505	512	511	31	31	
12	0	0	0	0	501	508	510	511	31	31	
13	0	0	0	0	499	509	513	512	31	31	
14	0	0	0	0	501	510	512	510	31	31	
15	0	0	0	0	503	511	511	510	31	31	
0	0	0	0	0	505	513	513	510	31	31	
1	0	0	0	0	505	514	513	510	31	32	
2	0	0	0	0	507	513	514	508	31	32	
3	0	0	0	0	508	514	512	512	31	31	
4	0	0	0	0	505	514	514	509	31	32	
5	0	0	0	0	503	515	512	510	31	31	
6	0	0	0	0	508	515	510	511	31	31	
7	0	0	0	0	506	520	512	510	31	31	
8	0	0	0	0	504	519	512	510	31	31	
9	0	0	0	0	503	512	511	507	31	31	
10	0	0	0	0	500	511	510	507	31	31	
11	0	0	0	0	501	508	512	507	31	32	
12	0	0	0	0	502	512	511	511	31	32	
13	0	0	0	0	502	516	511	508	31	32	
14	0	0	0	0	504	515	510	510	31	31	
15	0	0	0	0	501	514	511	511	31	32	
0	0	0	0	0	503	508	510	513	31	31	
1	0	0	0	0	502	510	511	510	31	31	
2	0	0	0	0	503	510	510	512	31	31	
3	0	0	0	0	502	515	511	511	31	31	
4	0	0	0	0	505	515	512	510	31	32	
5	0	0	0	0	506	514	514	511	31	31	
6	0	0	0	0	505	514	513	511	31	31	
7	0	0	0	0	506	512	512	510	31	32	
8	0	0	0	0	503	508	512	512	31	31	
9	0	0	0	0	506	505	512	508	31	31	
10	0	0	0	0	504	507	512	508	31	31	
11	0	0	0	0	507	508	512	512	31	31	
12	0	0	0	0	503	511	511	512	31	32	
13	0	0	0	0	497	513	511	510	31	31	
14	0	0	0	0	499	514	512	512	31	32	
15	0	0	0	0	497	513	511	508	31	32	
0	0	0	0	0	504	509	514	504	31	31	
1	0	0	0	0	505	509	514	510	31	31	
2	0	0	0	0	506	512	511	511	31	31	
3	0	0	0	0	507	513	510	512	31	31	
4	0	0	0	0	505	514	511	511	31	32	
5	0	0	0	0	504	513	512	513	31	32	
6	0	0	0	0	503	516	511	511	31	31	
7	0	0	0	0	502	516	513	511	31	31	
8	0	0	0	0	502	515	513	511	31	32	
9	0	0	0	0	502	515	512	512	31	31	
10	0	0	0	0	502	515	512	511	31	31	
11	0	0	0	0	503	512	511	508	31	31	
12	0	0	0	0	504	512	510	508	31	31	
13	0	0	0	0	506	513	509	511	31	32	
14	0	0	0	0	507	511	511	511	31	31	
15	0	0	0	0	508	508	512	511	31	31	
0	0	0	0	0	507	510	510	510	31	31	
1	0	0	0	0	502	509	510	511	31	31	
2	0	0	0	0	504	508	510	509	31	31	
3	0	0	0	0	501	509	511	508	31	31	
4	0	0	0	0	504	511	513	509	31	31	
5	0	0	0	0	505	514	510	510	31	31	
6	0	0	0	0	502	514	510	510	31	31	
7	0	0	0	0	500	516	512	511	31	31	
8	0	0	0	0	501	512	513	510	31	32	
9	0	0	0	0	503	510	512	510	31	32	
10	0	0	0	0	501	513	511	512	31	31	
11	0	0	0	0	502	512	512	514	31	31	
12	0	0	0	0	502	511	512	510	31	32	
13	0	0	0	0	499	515	512	511	31	32	
14	0	0	0	0	500	513	515	509	31	32	
15	0	0	0	0	504	513	513	511	31	31	
0	0	0	0	0	504	510	512	512	31	31	
1	0	0	0	0	504	509	512	513	31	31	
2	0	0	0	0	510	508	510	509	31	32	
3	0	0	0	0	512	508	513	507	31	31	
4	0	0	0	0	509	507	512	509	31	31	
5	0	0	0	0	508	510	512	508	31	31	
6	0	0	0	0	506	515	512	510	31	31	
7	0	0	0	0	504	516	510	515	31	31	
8	0	0	0	0	504	514	510	513	31	31	
9	0	0	0	0	503	515	513	510	31	32	
10	0	0	0	0	503	518	513	508	31	32	
11	0	0	0	0	501	515	509	508	31	32	
12	0	0	0	0	501	518	509	509	31	31	
13	0	0	0	0	499	511	510	509	31	31	
14	0	0	0	0	502	512	512	512	31	31	
15	0	0	0	0	502	511	512	508	31	31	
0	0	0	0	0	501	509	510	513	31	31	
1	0	0	0	0	504	517	510	509	31	31	
2	0	0	0	0	503	521	509	510	31	32	
3	0	0	0	0	503	519	510	510	31	31	
4	0	0	0	0	504	513	510	510	31	31	
5	0	0	0	0	508	506	510	511	31	31	
6	0	0	0	0	505	498	513	508	31	32	
7	0	0	0	0	504	496	511	510	31	32	
8	0	0	0	0	503	500	512	509	31	31	
9	0	0	0	0	505	505	510	511	31	31	
10	0	0	0	0	506	510	514	510	31	31	
11	0	0	0	0	504	515	516	508	31	31	
12	0	0	0	0	505	515	511	510	31	31	
13	0	0	0	0	505	519	512	511	31	31	
14	0	0	0	0	504	519	512	512	31	31	
15	0	0	0	0	505	523	513	510	31	32	
0	0	0	0	0	502	521	514	512	31	32	
1	0	0	0	0	500	518	512	513	31	32	
2	0	0	0	0	500	515	510	510	31	31	
3	0	0	0	0	499	511	512	509	31	31	
4	0	0	0	0	498	511	512	509	31	31	
5	0	0	0	0	502	508	513	506	31	31	
6	0	0	0	0	503	510	512	510	31	31	
7	0	0	0	0	505	511	513	509	31	31	
8	0	0	0	0	506	510	509	511	31	32	
9	0	0	0	0	508	511	511	511	31	31	
10	0	0	0	0	508	512	510	511	31	31	
11	0	0	0	0	507	512	510	509	31	31	
12	0	0	0	0	505	513	511	508	31	31	
13	0	0	0	0	503	516	510	507	31	31	
14	0	0	0	0	501	517	511	509	31	31	
15	0	0	0	0	504	515	510	510	31	31	
0	0	0	0	0	504	520	511	512	31	31	
1	0	0	0	0	501	516	512	512	31	32	
2	0	0	0	0	503	510	512	511	31	32	
3	0	0	0	0	503	505	511	512	31	32	
4	0	0	0	0	502	505	512	511	31	32	
5	0	0	0	0	502	508	511	510	31	32	
6	0	0	0	0	503	510	511	509	31	31	
7	0	0	0	0	503	513	512	508	31	31	
8	0	0	0	0	502	515	511	510	31	31	
9	0	0	0	0	504	516	511	511	31	31	
10	0	0	0	0	504	515	511	512	31	31	
11	0	0	0	0	505	514	510	511	31	31	
12	0	0	0	0	504	513	510	508	31	31	
13	0	0	0	0	502	513	512	509	31	32	
14	0	0	0	0	502	512	514	508	31	32	
15	0	0	0	0	504	512	515	511	31	32	
0	0	0	0	0	505	507	512	510	31	32	
1	0	0	0	0	504	505	510	510	31	32	
2	0	0	0	0	504	508	511	509	31	31	
3	0	0	0	0	507	510	512	512	31	31	
4	0	0	0	0	504	512	510	509	31	31	
5	0	0	0	0	505	514	511	513	31	31	
6	0	0	0	0	505	513	511	508	31	32	
7	0	0	0	0	504	514	510	508	31	31	
8	0	0	0	0	505	515	512	513	31	31	
9	0	0	0	0	503	511	512	512	31	31	
10	0	0	0	0	505	512	513	511	31	31	
11	0	0	0	0	506	512	511	511	31	31	
12	0	0	0	0	504	514	512	512	31	31	
13	0	0	0	0	505	516	513	510	31	32	
14	0	0	0	0	504	517	511	511	31	31	
15	0	0	0	0	503	519	510	510	31	31	
0	0	0	0	0	503	516	511	509	31	31	
1	0	0	0	0	504	512	512	510	31	31	
2	0	0	0	0	501	510	511	510	31	31	
3	0	0	0	0	504	511	510	512	31	31	
4	0	0	0	0	503	511	510	511	31	31	
5	0	0	0	0	502	511	513	509	31	31	
6	0	0	0	0	503	511	513	510	31	31	
7	0	0	0	0	504	514	510	507	31	32	
8	0	0	0	0	503	514	511	511	31	31	
9	0	0	0	0	498	515	511	510	31	31	
10	0	0	0	0	501	513	511	512	31	32	
11	0	0	0	0	502	511	509	511	31	31	
12	0	0	0	0	504	508	513	508	31	31	
13	0	0	0	0	504	510	511	509	31	31	
14	0	0	0	0	508	514	513	509	31	32	
15	0	0	0	0	506	513	513	509	31	32	
0	0	0	0	0	508	510	512	508	31	31	
1	0	0	0	0	505	510	511	509	31	31	
2	0	0	0	0	505	513	510	509	31	31	
3	0	0	0	0	504	516	512	509	31	32	
4	0	0	0	0	505	515	514	509	31	32	
5	0	0	0	0	509	515	515	512	31	31	
6	0	0	0	0	508	510	513	510	31	32	
7	0	0	0	0	506	510	513	509	31	31	
8	0	0	0	0	501	513	513	510	31	31	
9	0	0	0	0	502	518	511	509	31	31	
10	0	0	0	0	501	515	509	512	31	31	
11	0	0	0	0	500	510	511	511	31	31	
12	0	0	0	0	502	511	511	510	31	31	
13	0	0	0	0	502	508	511	509	31	31	
14	0	0	0	0	503	507	511	509	31	32	
15	0	0	0	0	501	508	512	513	31	32	
0	0	0	0	0	499	509	510	512	31	32	
1	0	0	0	0	502	511	508	511	31	31	
2	0	0	0	0	507	515	513	511	31	31	
3	0	0	0	0	507	517	513	505	31	31	
4	0	0	0	0	510	514	513	508	31	31	
5	0	0	0	0	507	510	510	508	31	31	
6	0	0	0	0	504	510	512	510	31	32	
7	0	0	0	0	505	510	512	508	31	31	
8	0	0	0	0	504	510	512	508	31	32	
9	0	0	0	0	503	510	512	509	31	32	
10	0	0	0	0	504	511	514	512	31	31	
11	0	0	0	0	503	515	512	512	31	31	
12	0	0	0	0	504	516	511	510	31	31	
13	0	0	0	0	502	516	509	511	31	31	
14	0	0	0	0	503	515	509	514	31	31	
15	0	0	0	0	503	513	509	510	31	31	
0	0	0	0	0	502	510	510	510	31	31	
1	0	0	0	0	504	511	511	509	31	31	
2	0	0	0	0	502	511	513	511	31	32	
3	0	0	0	0	497	508	513	512	31	32	
4	0	0	0	0	499	508	512	510	31	32	
5	0	0	0	0	500	513	512	507	31	31	
6	0	0	0	0	504	519	514	509	31	31	
7	0	0	0	0	503	518	509	511	31	31	
8	0	0	0	0	505	517	512	510	31	31	
9	0	0	0	0	503	517	511	508	31	31	
10	0	0	0	0	501	516	513	509	31	31	
11	0	0	0	0	500	516	513	511	31	32	
12	0	0	0	0	501	517	511	510	31	31	
13	0	0	0	0	502	516	511	511	31	31	
14	0	0	0	0	505	510	512	512	31	32	
15	0	0	0	0	504	507	510	512	31	32	
0	0	0	0	0	504	506	511	510	31	32	
1	0	0	0	0	501	504	511	511	31	31	
2	0	0	0	0	501	508	510	511	31	31	
3	0	0	0	0	500	507	512	511	31	31	
4	0	0	0	0	500	509	513	509	31	31	
5	0	0	0	0	502	513	512	511	31	31	
6	0	0	0	0	499	513	511	510	31	31	
7	0	0	0	0	499	512	510	507	31	31	
8	0	0	0	0	498	513	510	510	31	31	
9	0	0	0	0	503	514	513	510	31	32	
10	0	0	0	0	504	517	512	509	31	32	
11	0	0	0	0	504	512	512	512	31	31	
12	0	0	0	0	503	514	512	510	31	31	
13	0	0	0	0	504	514	514	511	31	31	
14	0	0	0	0	504	515	512	511	31	31	
15	0	0	0	0	505	515	512	511	31	32	
0	0	0	0	0	505	513	513	508	31	31	
1	0	0	0	0	503	512	513	509	31	31	
2	0	0	0	0	503	510	512	508	31	32	
3	0	0	0	0	506	511	512	511	31	31	
4	0	0	0	0	504	511	511	507	31	32	
5	0	0	0	0	503	512	511	510	31	31	
6	0	0	0	0	504	510	512	511	31	31	
7	0	0	0	0	503	509	511	510	31	32	
8	0	0	0	0	506	510	508	511	31	31	
9	0	0	0	0	503	513	507	510	31	31	
10	0	0	0	0	502	516	510	508	31	31	
11	0	0	0	0	504	518	512	509	31	31	
12	0	0	0	0	500	517	512	507	31	31	
13	0	0	0	0	500	514	513	510	31	31	
14	0	0	0	0	500	514	513	513	31	32	
15	0	0	0	0	502	512	512	513	31	32	
0	0	0	0	0	503	512	512	513	31	32	
1	0	0	0	0	503	510	512	509	31	31	
2	0	0	0	0	505	512	512	508	31	31	
3	0	0	0	0	503	508	509	511	31	31	
4	0	0	0	0	502	507	510	512	31	31	
5	0	0	0	0	502	511	511	510	31	31	
6	0	0	0	0	503	512	512	509	31	31	
7	0	0	0	0	504	513	513	510	31	32	
8	0	0	0	0	505	514	511	508	31	31	
9	0	0	0	0	502	513	511	510	31	31	
10	0	0	0	0	504	515	511	511	31	31	
11	0	0	0	0	506	511	512	511	31	31	
12	0	0	0	0	506	510	513	509	31	31	
13	0	0	0	0	505	510	511	510	31	31	
14	0	0	0	0	505	514	512	511	31	32	
15	0	0	0	0	507	516	513	510	31	32	
0	0	0	0	0	506	514	513	512	31	31	
1	0	0	0	0	502	513	512	509	31	31	
2	0	0	0	0	500	510	512	511	31	31	
3	0	0	0	0	504	508	511	512	31	31	
4	0	0	0	0	506	506	512	510	31	31	
5	0	0	0	0	504	507	512	509	31	31	
6	0	0	0	0	504	511	509	507	31	32	
7	0	0	0	0	503	514	510	511	31	32	
8	0	0	0	0	501	514	512	508	31	31	
9	0	0	0	0	502	517	512	510	31	31	
10	0	0	0	0	502	518	513	510	31	31	
11	0	0	0	0	504	515	515	508	31	31	
12	0	0	0	0	502	515	512	514	31	31	
13	0	0	0	0	503	514	512	511	31	31	
14	0	0	0	0	506	512	512	512	31	32	
15	0	0	0	0	504	509	512	511	31	32	
0	0	0	0	0	505	508	511	507	31	32	
1	0	0	0	0	504	511	509	508	31	31	
2	0	0	0	0	502	512	510	509	31	32	
3	0	0	0	0	503	513	511	511	31	31	
4	0	0	0	0	502	513	510	508	31	31	
5	0	0	0	0	503	515	512	510	31	31	
6	0	0	0	0	507	514	511	509	31	31	
7	0	0	0	0	505	516	511	510	31	31	
8	0	0	0	0	505	516	510	510	31	31	
9	0	0	0	0	505	515	513	513	31	32	
10	0	0	0	0	503	515	513	510	31	31	
11	0	0	0	0	505	512	514	511	31	31	
12	0	0	0	0	504	510	512	512	31	31	
13	0	0	0	0	504	511	513	510	31	31	
14	0	0	0	0	502	511	512	505	31	31	
15	0	0	0	0	504	508	510	508	31	31	
0	0	0	0	0	504	509	513	509	31	31	
1	0	0	0	0	507	509	511	508	31	31	
2	0	0	0	0	508	508	511	508	31	32	
3	0	0	0	0	508	511	512	513	31	32	
4	0	0	0	0	506	514	513	510	31	32	
5	0	0	0	0	504	515	511	509	31	32	
6	0	0	0	0	504	516	512	514	31	31	
7	0	0	0	0	504	515	514	510	31	31	
8	0	0	0	0	508	515	512	512	31	31	
9	0	0	0	0	507	518	513	510	31	31	
10	0	0	0	0	506	518	513	512	31	31	
11	0	0	0	0	510	511	512	510	31	31	
12	0	0	0	0	508	510	510	511	31	31	
13	0	0	0	0	505	507	510	512	31	31	
14	0	0	0	0	500	507	509	512	31	31	
15	0	0	0	0	499	507	510	510	31	32	
0	0	0	0	0	496	511	511	511	31	32	
1	0	0	0	0	499	509	511	512	31	31	
2	0	0	0	0	497	509	510	508	31	31	
3	0	0	0	0	500	512	512	509	31	31	
4	0	0	0	0	504	513	513	510	31	31	
5	0	0	0	0	505	515	512	508	31	32	
6	0	0	0	0	504	515	513	509	31	32	
7	0	0	0	0	501	513	511	512	31	32	
8	0	0	0	0	502	511	512	510	31	32	
9	0	0	0	0	505	513	512	512	31	31	
10	0	0	0	0	507	513	513	511	31	31	
11	0	0	0	0	509	513	512	514	31	31	
12	0	0	0	0	509	515	510	512	31	31	
13	0	0	0	0	509	514	511	512	31	31	
14	0	0	0	0	506	515	510	509	31	32	
15	0	0	0	0	504	517	510	509	31	32	
0	0	0	0	0	502	516	512	509	31	32	
1	0	0	0	0	501	513	512	508	31	32	
2	0	0	0	0	504	513	511	510	31	32	
3	0	0	0	0	503	512	511	510	31	32	
4	0	0	0	0	500	511	512	510	31	32	
5	0	0	0	0	501	507	512	509	31	31	
6	0	0	0	0	498	507	511	510	31	31	
7	0	0	0	0	502	514	512	510	31	31	
8	0	0	0	0	502	517	509	512	31	31	
9	0	0	0	0	501	514	511	510	31	31	
10	0	0	0	0	502	509	513	508	31	31	
11	0	0	0	0	503	512	513	508	31	31	
12	0	0	0	0	504	513	511	510	31	31	
13	0	0	0	0	503	513	512	510	31	31	
14	0	0	0	0	502	512	512	508	31	31	
15	0	0	0	0	502	512	513	512	31	31	
0	0	0	0	0	501	510	511	512	31	32	
1	0	0	0	0	504	508	511	512	31	31	
2	0	0	0	0	506	511	511	506	31	31	
3	0	0	0	0	508	513	511	505	31	31	
4	0	0	0	0	505	514	511	510	31	31	
5	0	0	0	0	501	516	511	510	31	31	
6	0	0	0	0	499	515	511	509	31	32	
7	0	0	0	0	503	512	512	511	31	31	
8	0	0	0	0	504	510	511	513	31	31	
9	0	0	0	0	502	512	511	512	31	31	
10	0	0	0	0	501	511	512	511	31	32	
11	0	0	0	0	501	516	513	510	31	32	
12	0	0	0	0	505	516	513	510	31	32	
13	0	0	0	0	504	519	511	510	31	32	
14	0	0	0	0	507	516	510	509	31	31	
15	0	0	0	0	508	512	511	508	31	31	
0	0	0	0	0	506	508	514	511	31	31	
1	0	0	0	0	504	504	514	511	31	31	
2	0	0	0	0	504	505	510	510	31	31	
3	0	0	0	0	507	504	511	510	31	32	
4	0	0	0	0	505	507	509	511	31	31	
5	0	0	0	0	503	508	510	511	31	31	
6	0	0	0	0	503	511	511	511	31	31	
7	0	0	0	0	505	513	514	511	31	31	
8	0	0	0	0	504	513	512	509	31	31	
9	0	0	0	0	505	515	511	510	31	32	
10	0	0	0	0	503	515	511	510	31	32	
11	0	0	0	0	499	515	512	509	31	32	
12	0	0	0	0	499	513	513	509	31	31	
13	0	0	0	0	498	513	515	510	31	31	
14	0	0	0	0	502	517	512	512	31	31	
15	0	0	0	0	501	518	510	511	31	31	
0	0	0	0	0	504	518	513	511	31	31	
1	0	0	0	0	503	515	510	509	31	31	
2	0	0	0	0	506	511	513	510	31	31	
3	0	0	0	0	504	508	514	509	31	31	
4	0	0	0	0	505	508	511	509	31	32	
5	0	0	0	0	503	510	512	508	31	32	
6	0	0	0	0	503	514	513	509	31	31	
7	0	0	0	0	503	519	511	508	31	31	
8	0	0	0	0	503	517	509	511	31	31	
9	0	0	0	0	504	514	510	508	31	31	
10	0	0	0	0	503	513	512	510	31	31	
11	0	0	0	0	504	513	512	509	31	31	
12	0	0	0	0	503	513	513	508	31	32	
13	0	0	0	0	504	515	510	511	31	31	
14	0	0	0	0	503	515	511	512	31	31	
15	0	0	0	0	504	509	509	511	31	31	
0	0	0	0	0	501	504	512	510	31	31	
1	0	0	0	0	499	503	511	511	31	31	
2	0	0	0	0	501	504	511	509	31	32	
3	0	0	0	0	504	509	512	511	31	31	
4	0	0	0	0	507	510	513	514	31	31	
5	0	0	0	0	503	511	510	511	31	31	
6	0	0	0	0	503	513	512	505	31	32	
7	0	0	0	0	503	516	513	510	31	31	
8	0	0	0	0	500	516	511	509	31	31	
9	0	0	0	0	497	514	512	510	31	31	
10	0	0	0	0	498	512	510	511	31	31	
11	0	0	0	0	502	512	510	513	31	31	
12	0	0	0	0	506	511	510	511	31	31	
13	0	0	0	0	509	512	509	511	31	31	
14	0	0	0	0	509	513	512	510	31	31	
15	0	0	0	0	506	514	512	510	31	31	
0	0	0	0	0	504	514	511	511	31	31	
1	0	0	0	0	504	513	512	511	31	32	
2	0	0	0	0	505	512	513	512	31	32	
3	0	0	0	0	504	514	513	511	31	32	
4	0	0	0	0	502	518	513	511	31	32	
5	0	0	0	0	502	518	512	510	31	31	
6	0	0	0	0	504	513	511	510	31	31	
7	0	0	0	0	502	517	511	508	31	31	
8	0	0	0	0	504	513	511	512	31	32	
9	0	0	0	0	503	510	511	509	31	32	
10	0	0	0	0	500	510	511	508	31	31	
11	0	0	0	0	501	512	512	511	31	31	
12	0	0	0	0	501	513	511	509	31	31	
13	0	0	0	0	504	513	511	508	31	31	
14	0	0	0	0	504	510	511	508	31	31	
15	0	0	0	0	502	508	511	509	31	31	
0	0	0	0	0	503	508	510	509	31	31	
1	0	0	0	0	502	508	514	512	31	31	
2	0	0	0	0	504	509	512	512	31	31	
3	0	0	0	0	507	510	512	510	31	31	
4	0	0	0	0	504	511	512	509	31	31	
5	0	0	0	0	502	512	513	512	31	31	
6	0	0	0	0	499	514	513	510	31	31	
7	0	0	0	0	503	511	512	507	31	31	
8	0	0	0	0	504	511	511	508	31	32	
9	0	0	0	0	504	512	510	514	31	32	
10	0	0	0	0	510	513	511	512	31	31	
11	0	0	0	0	509	512	508	511	31	31	
12	0	0	0	0	509	516	511	512	31	31	
13	0	0	0	0	505	517	512	507	31	31	
14	0	0	0	0	502	512	510	511	31	31	
15	0	0	0	0	499	511	510	508	31	31	
0	0	0	0	0	499	513	512	511	31	32	
1	0	0	0	0	499	516	513	512	31	32	
2	0	0	0	0	500	519	511	512	31	31	
3	0	0	0	0	502	519	512	512	31	31	
4	0	0	0	0	502	515	510	512	31	31	
5	0	0	0	0	505	510	512	505	31	31	
6	0	0	0	0	505	511	511	508	31	31	
7	0	0	0	0	506	507	511	511	31	31	
8	0	0	0	0	505	507	513	511	31	31	
9	0	0	0	0	505	511	512	508	31	31	
10	0	0	0	0	501	515	512	511	31	31	
11	0	0	0	0	503	515	511	510	31	31	
12	0	0	0	0	501	510	512	510	31	32	
13	0	0	0	0	504	508	511	511	31	32	
14	0	0	0	0	501	511	512	513	31	32	
15	0	0	0	0	503	507	512	508	31	31	
0	0	0	0	0	505	510	512	509	31	32	
1	0	0	0	0	506	512	512	511	31	32	
2	0	0	0	0	508	513	508	510	31	31	
3	0	0	0	0	507	512	510	511	31	31	
4	0	0	0	0	504	511	510	510	31	31	
5	0	0	0	0	503	508	513	509	31	31	
6	0	0	0	0	503	509	513	509	31	31	
7	0	0	0	0	502	508	514	509	31	32	
8	0	0	0	0	503	511	511	511	31	31	
9	0	0	0	0	503	513	514	510	31	32	
10	0	0	0	0	502	517	513	511	31	31	
11	0	0	0	0	504	516	512	510	31	31	
12	0	0	0	0	504	518	512	511	31	32	
13	0	0	0	0	502	517	512	510	31	31	
14	0	0	0	0	501	515	512	510	31	31	
15	0	0	0	0	502	517	512	510	31	31	
0	0	0	0	0	502	514	513	511	31	31	
1	0	0	0	0	503	514	509	510	31	31	
2	0	0	0	0	501	513	512	509	31	31	
3	0	0	0	0	502	512	512	510	31	31	
4	0	0	0	0	502	512	511	514	31	31	
5	0	0	0	0	503	511	511	511	31	32	
6	0	0	0	0	502	512	511	511	31	32	
7	0	0	0	0	499	513	512	510	31	31	
8	0	0	0	0	503	515	511	508	31	31	
9	0	0	0	0	504	512	512	508	31	31	
10	0	0	0	0	504	507	509	508	31	31	
11	0	0	0	0	504	504	513	510	31	31	
12	0	0	0	0	505	508	512	510	31	31	
13	0	0	0	0	505	518	512	512	31	32	
14	0	0	0	0	503	521	508	511	31	32	
15	0	0	0	0	506	515	511	510	31	32	
0	0	0	0	0	505	511	510	510	31	32	
1	0	0	0	0	505	507	510	510	31	32	
2	0	0	0	0	503	510	509	508	31	31	
3	0	0	0	0	502	512	513	510	31	31	
4	0	0	0	0	503	515	512	509	31	31	
5	0	0	0	0	503	515	512	510	31	31	
6	0	0	0	0	503	512	513	512	31	31	
7	0	0	0	0	502	511	513	511	31	31	
8	0	0	0	0	503	507	512	510	31	31	
9	0	0	0	0	505	505	512	511	31	31	
10	0	0	0	0	507	508	511	507	31	31	
11	0	0	0	0	507	508	512	509	31	31	
12	0	0	0	0	504	511	512	511	31	31	
13	0	0	0	0	502	512	513	507	31	31	
14	0	0	0	0	503	512	513	508	31	31	
15	0	0	0	0	500	515	511	512	31	32	
0	0	0	0	0	502	513	512	511	31	32	
1	0	0	0	0	504	514	512	512	31	31	
2	0	0	0	0	504	515	512	512	31	31	
3	0	0	0	0	502	514	510	509	31	31	
4	0	0	0	0	502	513	511	510	31	31	
5	0	0	0	0	501	513	511	507	31	31	
6	0	0	0	0	504	513	513	511	31	32	
7	0	0	0	0	500	517	512	512	31	31	
8	0	0	0	0	502	515	512	511	31	31	
9	0	0	0	0	502	515	509	511	31	31	
10	0	0	0	0	503	514	509	511	31	31	
11	0	0	0	0	504	515	514	510	31	32	
12	0	0	0	0	502	511	513	508	31	32	
13	0	0	0	0	504	509	512	510	31	31	
14	0	0	0	0	507	507	512	510	31	31	
15	0	0	0	0	502	511	511	512	31	31	
0	0	0	0	0	503	512	510	510	31	31	
1	0	0	0	0	501	513	512	511	31	31	
2	0	0	0	0	502	512	509	510	31	31	
3	0	0	0	0	504	509	511	511	31	32	
4	0	0	0	0	504	510	515	509	31	31	
5	0	0	0	0	503	514	515	510	31	31	
6	0	0	0	0	503	515	514	508	31	31	
7	0	0	0	0	504	515	515	509	31	31	
8	0	0	0	0	508	509	510	511	31	32	
9	0	0	0	0	507	512	512	510	31	32	
10	0	0	0	0	507	511	512	510	31	31	
11	0	0	0	0	505	512	510	510	31	31	
12	0	0	0	0	502	509	511	511	31	31	
13	0	0	0	0	498	511	511	512	31	31	
14	0	0	0	0	499	513	510	512	31	32	
15	0	0	0	0	504	512	513	511	31	32	
0	0	0	0	0	505	516	511	510	31	31	
1	0	0	0	0	506	516	511	509	31	31	
2	0	0	0	0	504	516	511	509	31	32	
3	0	0	0	0	501	512	510	510	31	32	
4	0	0	0	0	502	509	511	510	31	32	
5	0	0	0	0	504	513	513	509	31	32	
6	0	0	0	0	503	514	512	513	31	31	
7	0	0	0	0	503	513	511	510	31	31	
8	0	0	0	0	504	515	512	510	31	31	
9	0	0	0	0	504	515	515	510	31	31	
10	0	0	0	0	506	512	512	510	31	31	
11	0	0	0	0	506	508	512	512	31	31	
12	0	0	0	0	504	507	511	511	31	31	
13	0	0	0	0	502	510	510	510	31	31	
14	0	0	0	0	503	510	511	513	31	32	
15	0	0	0	0	503	512	512	506	31	32	
0	0	0	0	0	502	511	510	509	31	31	
1	0	0	0	0	500	515	510	510	31	31	
2	0	0	0	0	499	513	510	507	31	31	
3	0	0	0	0	502	514	512	510	31	31	
4	0	0	0	0	502	512	514	510	31	31	
5	0	0	0	0	503	510	514	512	31	31	
6	0	0	0	0	505	510	515	513	31	32	
7	0	0	0	0	507	510	511	510	31	32	
8	0	0	0	0	506	512	510	512	31	32	
9	0	0	0	0	510	512	511	509	31	32	
10	0	0	0	0	508	511	512	510	31	31	
11	0	0	0	0	507	512	510	511	31	31	
12	0	0	0	0	505	511	510	509	31	31	
13	0	0	0	0	503	511	511	509	31	32	
14	0	0	0	0	502	512	512	510	31	32	
15	0	0	0	0	499	512	508	513	31	32	
0	0	0	0	0	500	515	509	511	31	32	
1	0	0	0	0	502	523	511	507	31	31	
2	0	0	0	0	502	519	512	510	31	31	
3	0	0	0	0	503	514	511	512	31	31	
4	0	0	0	0	504	511	513	510	31	31	
5	0	0	0	0	504	508	512	510	31	31	
6	0	0	0	0	503	509	512	505	31	31	
7	0	0	0	0	502	511	511	512	31	31	
8	0	0	0	0	502	514	511	509	31	32	
9	0	0	0	0	500	515	512	509	31	31	
10	0	0	0	0	502	511	512	511	31	31	
11	0	0	0	0	507	510	511	509	31	31	
12	0	0	0	0	508	508	515	508	31	31	
13	0	0	0	0	506	510	513	511	31	31	
14	0	0	0	0	506	507	510	512	31	32	
15	0	0	0	0	507	510	514	511	31	31	
0	0	0	0	0	507	512	512	511	31	31	
1	0	0	0	0	509	516	513	511	31	31	
2	0	0	0	0	509	518	513	513	31	31	
3	0	0	0	0	509	514	514	512	31	32	
4	0	0	0	0	510	512	512	510	31	31	
5	0	0	0	0	509	515	511	509	31	31	
6	0	0	0	0	510	516	510	510	31	31	
7	0	0	0	0	506	514	508	509	31	31	
8	0	0	0	0	501	511	510	508	31	32	
9	0	0	0	0	495	509	511	511	31	31	
10	0	0	0	0	496	510	511	512	31	31	
11	0	0	0	0	499	512	511	513	31	31	
12	0	0	0	0	507	508	510	510	31	31	
13	0	0	0	0	504	509	513	506	31	31	
14	0	0	0	0	505	512	512	509	31	31	
15	0	0	0	0	503	516	512	512	31	32	
0	0	0	0	0	504	514	511	510	31	32	
1	0	0	0	0	507	515	510	509	31	31	
2	0	0	0	0	508	511	509	509	31	32	
3	0	0	0	0	510	507	510	508	31	31	
4	0	0	0	0	510	509	511	510	31	31	
5	0	0	0	0	507	511	511	508	31	31	
6	0	0	0	0	508	513	512	512	31	31	
7	0	0	0	0	506	512	508	511	31	31	
8	0	0	0	0	505	512	512	511	31	31	
9	0	0	0	0	504	512	514	510	31	31	
10	0	0	0	0	504	512	513	510	31	31	
11	0	0	0	0	501	511	513	508	31	31	
12	0	0	0	0	502	512	515	508	31	31	
13	0	0	0	0	505	515	515	508	31	31	
14	0	0	0	0	503	516	515	509	31	31	
15	0	0	0	0	504	513	515	511	31	31	
0	0	0	0	0	504	515	511	512	31	31	
1	0	0	0	0	503	511	512	510	31	31	
2	0	0	0	0	504	511	511	509	31	31	
3	0	0	0	0	506	513	512	512	31	32	
4	0	0	0	0	505	514	512	511	31	32	
5	0	0	0	0	501	514	511	513	31	32	
6	0	0	0	0	499	514	511	511	31	32	
7	0	0	0	0	500	511	512	510	31	31	
8	0	0	0	0	502	510	511	510	31	31	
9	0	0	0	0	501	513	510	512	31	31	
10	0	0	0	0	499	513	510	511	31	31	
11	0	0	0	0	502	514	510	512	31	31	
12	0	0	0	0	505	512	509	508	31	32	
13	0	0	0	0	506	513	511	511	31	31	
14	0	0	0	0	506	514	510	509	31	31	
15	0	0	0	0	505	514	513	511	31	32	
0	0	0	0	0	505	512	513	511	31	32	
1	0	0	0	0	504	512	510	509	31	31	
2	0	0	0	0	505	512	512	509	31	31	
3	0	0	0	0	504	510	510	510	31	31	
4	0	0	0	0	504	511	512	509	31	31	
5	0	0	0	0	502	513	512	510	31	31	
6	0	0	0	0	499	511	512	511	31	31	
7	0	0	0	0	498	510	512	508	31	31	
8	0	0	0	0	499	510	512	511	31	31	
9	0	0	0	0	505	512	513	512	31	32	
10	0	0	0	0	502	517	514	512	31	32	
11	0	0	0	0	504	515	512	510	31	31	
12	0	0	0	0	503	511	512	512	31	32	
13	0	0	0	0	500	504	514	509	31	32	
14	0	0	0	0	502	512	512	508	31	31	
15	0	0	0	0	505	519	512	508	31	31	
0	0	0	0	0	503	522	512	508	31	31	
1	0	0	0	0	501	515	512	507	31	31	
2	0	0	0	0	501	512	511	511	31	31	
3	0	0	0	0	502	508	509	511	31	32	
4	0	0	0	0	504	508	508	511	31	32	
5	0	0	0	0	503	511	512	510	31	31	
6	0	0	0	0	507	510	512	511	31	32	
7	0	0	0	0	506	512	513	509	31	32	
8	0	0	0	0	504	516	512	509	31	31	
9	0	0	0	0	504	516	512	511	31	31	
10	0	0	0	0	503	515	512	508	31	31	
11	0	0	0	0	506	512	512	511	31	31	
12	0	0	0	0	503	506	511	511	31	31	
13	0	0	0	0	501	508	511	510	31	31	
14	0	0	0	0	503	508	512	511	31	32	
15	0	0	0	0	504	508	511	510	31	31	
0	0	0	0	0	504	506	510	513	31	31	
1	0	0	0	0	501	508	509	511	31	32	
2	0	0	0	0	504	510	511	511	31	32	
3	0	0	0	0	501	514	511	509	31	32	
4	0	0	0	0	502	512	510	509	31	31	
5	0	0	0	0	504	518	509	509	31	31	
6	0	0	0	0	504	516	512	509	31	31	
7	0	0	0	0	506	519	511	510	31	31	
8	0	0	0	0	503	519	510	512	31	31	
9	0	0	0	0	503	517	512	513	31	31	
10	0	0	0	0	504	515	514	510	31	31	
11	0	0	0	0	506	512	511	511	31	31	
12	0	0	0	0	504	510	513	509	31	32	
13	0	0	0	0	504	506	513	507	31	32	
14	0	0	0	0	504	510	510	511	31	31	
15	0	0	0	0	505	517	512	512	31	31	
0	0	0	0	0	504	516	514	509	31	32	
1	0	0	0	0	506	519	511	510	31	31	
2	0	0	0	0	506	513	512	513	31	31	
3	0	0	0	0	508	512	512	513	31	31	
4	0	0	0	0	507	511	511	511	31	31	
5	0	0	0	0	509	507	512	508	31	31	
6	0	0	0	0	507	504	511	511	31	32	
7	0	0	0	0	507	509	512	511	31	31	
8	0	0	0	0	506	511	511	509	31	31	
9	0	0	0	0	507	514	512	508	31	32	
10	0	0	0	0	505	519	510	506	31	32	
11	0	0	0	0	504	519	513	507	31	32	
12	0	0	0	0	505	516	513	511	31	32	
13	0	0	0	0	507	516	512	510	31	32	
14	0	0	0	0	506	510	513	510	31	32	
15	0	0	0	0	511	505	511	511	31	31	
0	0	0	0	0	512	508	511	516	31	31	
1	0	0	0	0	505	511	512	513	31	31	
2	0	0	0	0	504	515	512	508	31	31	
3	0	0	0	0	504	518	509	507	31	31	
4	0	0	0	0	504	515	510	509	31	32	
5	0	0	0	0	505	511	512	512	31	31	
6	0	0	0	0	504	505	512	508	31	32	
7	0	0	0	0	493	505	510	509	31	31	
8	0	0	0	0	487	504	514	509	31	31	
9	0	0	0	0	477	508	512	508	31	31	
10	0	0	0	0	473	508	511	510	31	31	
11	0	0	0	0	468	511	512	510	31	31	
12	0	0	0	0	463	511	512	510	31	31	
13	0	0	0	0	457	516	511	508	31	31	
14	0	0	0	0	458	516	513	512	31	31	
15	0	0	0	0	456	514	512	511	31	32	
0	0	0	0	0	455	513	511	509	31	32	
1	0	0	0	0	456	515	510	508	31	32	
2	0	0	0	0	460	519	511	508	31	31	
3	0	0	0	0	464	526	512	511	31	31	
4	0	0	0	0	463	519	509	510	31	31	
5	0	0	0	0	466	510	512	509	31	31	
6	0	0	0	0	471	507	511	508	31	31	
7	0	0	0	0	473	510	511	510	31	31	
8	0	0	0	0	480	512	512	511	31	31	
9	0	0	0	0	482	513	513	509	31	31	
10	0	0	0	0	482	513	511	509	31	32	
11	0	0	0	0	484	511	510	510	31	31	
12	0	0	0	0	484	508	512	512	31	32	
13	0	0	0	0	485	509	512	511	31	32	
14	0	0	0	0	486	512	515	511	31	32	
15	0	0	0	0	487	511	510	513	31	31	
0	0	0	0	0	487	513	513	508	31	31	
1	0	0	0	0	492	517	512	507	31	31	
2	0	0	0	0	492	523	512	507	31	31	
3	0	0	0	0	495	523	511	510	31	31	
4	0	0	0	0	498	508	512	508	31	32	
5	0	0	0	0	500	510	508	508	31	31	
6	0	0	0	0	501	508	511	512	31	32	
7	0	0	0	0	502	505	510	513	31	32	
8	0	0	0	0	504	504	511	514	31	31	
9	0	0	0	0	500	506	512	510	31	31	
10	0	0	0	0	499	509	511	509	31	31	
11	0	0	0	0	498	509	513	510	31	32	
12	0	0	0	0	502	509	513	513	31	32	
13	0	0	0	0	502	510	514	510	31	31	
14	0	0	0	0	499	515	512	506	31	31	
15	0	0	0	0	502	523	514	507	31	31	
0	0	0	0	0	503	521	512	512	31	31	
1	0	0	0	0	499	519	509	509	31	31	
2	0	0	0	0	498	514	510	512	31	31	
3	0	0	0	0	498	508	511	512	31	32	
4	0	0	0	0	498	509	512	513	31	32	
5	0	0	0	0	504	512	512	514	31	32	
6	0	0	0	0	503	515	511	513	31	32	
7	0	0	0	0	503	513	511	511	31	32	
8	0	0	0	0	504	510	510	511	31	32	
9	0	0	0	0	503	507	511	509	31	31	
10	0	0	0	0	499	508	511	512	31	31	
11	0	0	0	0	497	508	512	510	31	31	
12	0	0	0	0	497	512	509	509	31	31	
13	0	0	0	0	499	521	512	511	31	31	
14	0	0	0	0	498	523	513	509	31	32	
15	0	0	0	0	500	530	511	509	31	32	
0	0	0	0	0	499	523	510	511	31	31	
1	0	0	0	0	500	513	511	510	31	31	
2	0	0	0	0	500	514	511	511	31	31	
3	0	0	0	0	501	507	513	512	31	31	
4	0	0	0	0	502	499	510	510	31	31	
5	0	0	0	0	503	496	511	509	31	31	
6	0	0	0	0	500	502	513	509	31	31	
7	0	0	0	0	499	504	512	509	31	31	
8	0	0	0	0	501	502	512	510	31	31	
9	0	0	0	0	499	507	512	510	31	32	
10	0	0	0	0	498	513	511	513	31	32	
11	0	0	0	0	499	519	513	513	31	31	
12	0	0	0	0	502	512	515	512	31	31	
13	0	0	0	0	501	513	512	508	31	31	
14	0	0	0	0	502	525	514	508	31	31	
15	0	0	0	0	504	534	513	512	31	31	
0	0	0	0	0	504	531	513	511	31	31	
1	0	0	0	0	502	520	511	511	31	31	
2	0	0	0	0	501	510	512	510	31	32	
3	0	0	0	0	499	500	512	511	31	31	
4	0	0	0	0	502	493	510	514	31	31	
5	0	0	0	0	502	505	511	512	31	31	
6	0	0	0	0	501	510	513	506	31	32	
7	0	0	0	0	502	510	510	506	31	32	
8	0	0	0	0	504	511	510	510	31	32	
9	0	0	0	0	504	514	511	511	31	32	
10	0	0	0	0	504	514	509	510	31	31	
11	0	0	0	0	506	529	511	508	31	31	
12	0	0	0	0	500	533	512	510	31	31	
13	0	0	0	0	501	523	510	508	31	31	
14	0	0	0	0	502	511	511	509	31	31	
15	0	0	0	0	503	504	511	512	31	31	
0	0	0	0	0	503	490	513	512	31	31	
1	0	0	0	0	507	486	512	511	31	31	
2	0	0	0	0	505	491	511	512	31	31	
3	0	0	0	0	503	506	514	512	31	31	
4	0	0	0	0	503	513	513	511	31	31	
5	0	0	0	0	504	516	515	510	31	31	
6	0	0	0	0	502	521	514	509	31	32	
7	0	0	0	0	502	517	511	509	31	32	
8	0	0	0	0	502	521	513	508	31	32	
9	0	0	0	0	504	528	510	507	31	31	
10	0	0	0	0	505	535	508	510	31	31	
11	0	0	0	0	508	531	508	512	31	31	
12	0	0	0	0	505	512	509	513	31	31	
13	0	0	0	0	506	505	510	510	31	31	
14	0	0	0	0	508	502	511	510	31	31	
15	0	0	0	0	511	504	513	512	31	32	
0	0	0	0	0	511	508	510	512	31	32	
1	0	0	0	0	508	520	512	510	31	31	
2	0	0	0	0	510	509	511	509	31	31	
3	0	0	0	0	512	500	511	511	31	31	
4	0	0	0	0	506	497	511	511	31	31	
5	0	0	0	0	502	508	511	508	31	31	
6	0	0	0	0	502	519	511	507	31	32	
7	0	0	0	0	505	539	512	509	31	32	
8	0	0	0	0	504	517	513	509	31	32	
9	0	0	0	0	508	500	512	513	31	31	
10	0	0	0	0	508	502	512	510	31	31	
11	0	0	0	0	509	495	512	513	31	31	
12	0	0	0	0	507	499	515	509	31	31	
13	0	0	0	0	505	524	513	512	31	31	
14	0	0	0	0	504	524	512	512	31	31	
15	0	0	0	0	510	510	510	512	31	31	
0	0	0	0	0	513	502	511	511	31	31	
1	0	0	0	0	512	508	512	508	31	31	
2	0	0	0	0	511	518	512	508	31	31	
3	0	0	0	0	513	519	511	509	31	31	
4	0	0	0	0	513	518	511	508	31	31	
5	0	0	0	0	510	512	512	510	31	32	
6	0	0	0	0	510	512	512	510	31	32	
7	0	0	0	0	508	515	511	510	31	32	
8	0	0	0	0	508	512	511	511	31	31	
9	0	0	0	0	511	514	513	511	31	32	
10	0	0	0	0	516	515	510	509	31	31	
11	0	0	0	0	517	515	511	510	31	31	
12	0	0	0	0	512	519	510	510	31	31	
13	0	0	0	0	511	520	511	509	31	31	
14	0	0	0	0	510	516	512	508	31	31	
15	0	0	0	0	504	516	513	509	31	31	
0	0	0	0	0	504	511	512	510	31	31	
1	0	0	0	0	509	509	512	511	31	31	
2	0	0	0	0	509	512	512	510	31	31	
3	0	0	0	0	512	510	515	511	31	31	
4	0	0	0	0	512	509	513	510	31	31	
5	0	0	0	0	515	511	511	507	31	31	
6	0	0	0	0	515	519	511	510	31	32	
7	0	0	0	0	515	512	512	513	31	32	
8	0	0	0	0	514	509	509	511	31	32	
9	0	0	0	0	516	508	511	509	31	32	
10	0	0	0	0	516	499	508	510	31	32	
11	0	0	0	0	518	500	510	510	31	32	
12	0	0	0	0	516	507	510	508	31	32	
13	0	0	0	0	515	510	513	511	31	31	
14	0	0	0	0	515	511	512	510	31	31	
15	0	0	0	0	514	517	512	512	31	31	
0	0	0	0	0	514	524	513	507	31	31	
1	0	0	0	0	517	521	515	507	31	32	
2	0	0	0	0	517	516	512	510	31	31	
3	0	0	0	0	516	513	511	511	31	31	
4	0	0	0	0	512	508	514	509	31	31	
5	0	0	0	0	514	508	513	510	31	32	
6	0	0	0	0	515	510	512	511	31	31	
7	0	0	0	0	514	512	510	509	31	31	
8	0	0	0	0	513	511	513	511	31	31	
9	0	0	0	0	516	514	510	512	31	31	
10	0	0	0	0	517	515	513	509	31	31	
11	0	0	0	0	514	519	511	509	31	31	
12	0	0	0	0	514	520	511	509	31	31	
13	0	0	0	0	512	523	512	511	31	31	
14	0	0	0	0	510	525	509	513	31	31	
15	0	0	0	0	509	522	511	507	31	31	
0	0	0	0	0	513	517	511	510	31	32	
1	0	0	0	0	510	509	512	511	31	31	
2	0	0	0	0	509	494	510	509	31	31	
3	0	0	0	0	511	489	510	511	31	31	
4	0	0	0	0	512	493	513	510	31	31	
5	0	0	0	0	513	500	513	510	31	32	
6	0	0	0	0	512	505	512	513	31	31	
7	0	0	0	0	512	511	513	510	31	31	
8	0	0	0	0	511	513	510	510	31	31	
9	0	0	0	0	511	518	513	508	31	31	
10	0	0	0	0	508	521	511	508	31	31	
11	0	0	0	0	506	517	511	510	31	31	
12	0	0	0	0	505	516	511	511	31	32	
13	0	0	0	0	508	516	512	509	31	31	
14	0	0	0	0	507	515	511	511	31	32	
15	0	0	0	0	509	512	510	510	31	32	
0	0	0	0	0	507	511	510	509	31	31	
1	0	0	0	0	505	513	512	511	31	31	
2	0	0	0	0	503	515	510	512	31	32	
3	0	0	0	0	501	518	513	510	31	32	
4	0	0	0	0	502	515	512	511	31	31	
5	0	0	0	0	504	512	512	512	31	31	
6	0	0	0	0	503	511	513	512	31	31	
7	0	0	0	0	503	513	514	509	31	31	
8	0	0	0	0	507	516	513	510	31	31	
9	0	0	0	0	507	513	512	511	31	32	
10	0	0	0	0	508	510	513	511	31	32	
11	0	0	0	0	505	515	512	507	31	31	
12	0	0	0	0	506	527	510	505	31	32	
13	0	0	0	0	506	534	508	510	31	31	
14	0	0	0	0	504	519	508	510	31	31	
15	0	0	0	0	504	511	511	514	31	31	
0	0	0	0	0	497	495	510	512	31	31	
1	0	0	0	0	500	487	510	511	31	31	
2	0	0	0	0	501	487	511	508	31	31	
3	0	0	0	0	504	497	511	504	31	31	
4	0	0	0	0	502	503	512	507	31	31	
5	0	0	0	0	500	508	512	513	31	32	
6	0	0	0	0	499	508	512	514	31	32	
7	0	0	0	0	504	508	511	513	31	32	
8	0	0	0	0	503	517	513	511	31	32	
9	0	0	0	0	505	530	512	505	31	32	
10	0	0	0	0	505	524	512	509	31	31	
11	0	0	0	0	504	511	511	510	31	31	
12	0	0	0	0	504	508	512	509	31	31	
13	0	0	0	0	504	506	512	509	31	31	
14	0	0	0	0	505	506	512	509	31	31	
15	0	0	0	0	500	512	510	511	31	32	
0	0	0	0	0	503	520	512	509	31	31	
1	0	0	0	0	505	522	515	509	31	31	
2	0	0	0	0	504	517	512	511	31	31	
3	0	0	0	0	504	513	514	512	31	31	
4	0	0	0	0	505	511	511	512	31	31	
5	0	0	0	0	507	516	513	511	31	31	
6	0	0	0	0	503	517	513	510	31	31	
7	0	0	0	0	502	518	511	509	31	31	
8	0	0	0	0	501	517	512	511	31	31	
9	0	0	0	0	501	516	509	510	31	31	
10	0	0	0	0	501	514	511	509	31	31	
11	0	0	0	0	502	512	512	512	31	31	
12	0	0	0	0	501	510	513	511	31	31	
13	0	0	0	0	503	508	512	511	31	31	
14	0	0	0	0	502	510	510	509	31	31	
15	0	0	0	0	503	511	514	509	31	32	
0	0	0	0	0	506	513	512	509	31	31	
1	0	0	0	0	505	515	510	510	31	31	
2	0	0	0	0	504	516	510	510	31	31	
3	0	0	0	0	501	514	510	510	31	31	
4	0	0	0	0	501	517	511	512	31	31	
5	0	0	0	0	504	514	512	512	31	31	
6	0	0	0	0	500	512	515	510	31	31	
7	0	0	0	0	500	512	509	506	31	32	
8	0	0	0	0	501	508	511	508	31	31	
9	0	0	0	0	499	510	510	510	31	32	
10	0	0	0	0	503	515	510	511	31	32	
11	0	0	0	0	503	506	508	510	31	31	
12	0	0	0	0	505	502	508	510	31	31	
13	0	0	0	0	506	501	511	513	31	31	
14	0	0	0	0	508	508	512	514	31	31	
15	0	0	0	0	511	513	515	512	31	32	
0	0	0	0	0	512	516	515	511	31	32	
1	0	0	0	0	512	518	511	511	31	32	
2	0	0	0	0	510	520	510	507	31	31	
3	0	0	0	0	509	526	511	507	31	32	
4	0	0	0	0	508	524	513	511	31	31	
5	0	0	0	0	505	517	514	511	31	31	
6	0	0	0	0	505	509	511	513	31	31	
7	0	0	0	0	504	500	513	509	31	31	
8	0	0	0	0	503	494	511	510	31	31	
9	0	0	0	0	502	496	512	511	31	31	
10	0	0	0	0	503	500	512	508	31	31	
11	0	0	0	0	503	507	511	510	31	31	
12	0	0	0	0	501	512	513	509	31	31	
13	0	0	0	0	504	514	513	510	31	31	
14	0	0	0	0	504	516	511	511	31	31	
15	0	0	0	0	502	516	512	509	31	31	
0	0	0	0	0	505	515	510	511	31	31	
1	0	0	0	0	504	519	510	507	31	31	
2	0	0	0	0	507	521	511	511	31	31	
3	0	0	0	0	501	521	511	509	31	31	
4	0	0	0	0	499	520	513	508	31	31	
5	0	0	0	0	497	514	513	510	31	31	
6	0	0	0	0	502	513	511	511	31	31	
7	0	0	0	0	501	513	512	508	31	31	
8	0	0	0	0	504	516	511	511	31	32	
9	0	0	0	0	504	521	512	512	31	31	
10	0	0	0	0	506	517	511	509	31	31	
11	0	0	0	0	505	510	511	510	31	32	
12	0	0	0	0	509	504	511	512	31	31	
13	0	0	0	0	505	501	510	512	31	31	
14	0	0	0	0	503	507	508	511	31	31	
15	0	0	0	0	506	509	509	509	31	32	
0	0	0	0	0	507	510	513	505	31	32	
1	0	0	0	0	507	509	511	508	31	32	
2	0	0	0	0	503	512	512	510	31	32	
3	0	0	0	0	502	513	512	510	31	31	
4	0	0	0	0	504	512	512	510	31	31	
5	0	0	0	0	505	515	512	511	31	31	
6	0	0	0	0	506	520	515	507	31	32	
7	0	0	0	0	504	519	512	507	31	32	
8	0	0	0	0	501	518	512	511	31	32	
9	0	0	0	0	499	516	512	509	31	31	
10	0	0	0	0	503	516	512	511	31	31	
11	0	0	0	0	501	512	514	510	31	31	
12	0	0	0	0	500	513	511	511	31	31	
13	0	0	0	0	501	511	511	510	31	31	
14	0	0	0	0	499	515	510	509	31	31	
15	0	0	0	0	500	516	512	510	31	31	
0	0	0	0	0	498	519	511	509	31	32	
1	0	0	0	0	500	510	510	511	31	32	
2	0	0	0	0	504	498	511	513	31	31	
3	0	0	0	0	505	496	512	513	31	31	
4	0	0	0	0	505	497	511	510	31	32	
5	0	0	0	0	505	504	513	510	31	32	
6	0	0	0	0	504	508	510	509	31	31	
7	0	0	0	0	504	513	512	507	31	31	
8	0	0	0	0	507	510	511	511	31	31	
9	0	0	0	0	507	504	510	511	31	31	
10	0	0	0	0	507	505	512	511	31	31	
11	0	0	0	0	501	508	513	510	31	31	
12	0	0	0	0	501	517	512	510	31	31	
13	0	0	0	0	499	523	513	510	31	31	
14	0	0	0	0	500	520	512	510	31	31	
15	0	0	0	0	498	523	512	509	31	32	
0	0	0	0	0	500	518	512	511	31	32	
1	0	0	0	0	499	518	511	511	31	31	
2	0	0	0	0	504	523	511	508	31	32	
3	0	0	0	0	503	518	508	510	31	32	
4	0	0	0	0	506	517	511	509	31	32	
5	0	0	0	0	505	516	511	508	31	31	
6	0	0	0	0	508	513	510	508	31	32	
7	0	0	0	0	508	510	514	511	31	31	
8	0	0	0	0	508	514	512	510	31	31	
9	0	0	0	0	510	519	512	514	31	31	
10	0	0	0	0	509	504	511	517	31	31	
11	0	0	0	0	505	501	511	508	31	31	
12	0	0	0	0	503	499	511	505	31	32	
13	0	0	0	0	503	501	514	505	31	32	
14	0	0	0	0	502	502	512	510	31	32	
15	0	0	0	0	499	510	513	510	31	32	
0	0	0	0	0	499	515	511	512	31	32	
1	0	0	0	0	500	521	511	511	31	32	
2	0	0	0	0	498	519	510	512	31	32	
3	0	0	0	0	504	517	510	511	31	31	
4	0	0	0	0	505	514	512	512	31	32	
5	0	0	0	0	506	512	511	509	31	31	
6	0	0	0	0	502	513	512	511	31	31	
7	0	0	0	0	500	509	509	510	31	31	
8	0	0	0	0	500	508	509	511	31	31	
9	0	0	0	0	503	510	512	508	31	31	
10	0	0	0	0	501	514	512	509	31	31	
11	0	0	0	0	504	518	515	510	31	32	
12	0	0	0	0	505	514	514	510	31	32	
13	0	0	0	0	503	515	511	512	31	32	
14	0	0	0	0	503	520	512	511	31	32	
15	0	0	0	0	501	519	510	508	31	31	
0	0	0	0	0	499	517	512	509	31	31	
1	0	0	0	0	504	510	512	510	31	31	
2	0	0	0	0	504	507	513	508	31	31	
3	0	0	0	0	504	507	512	510	31	31	
4	0	0	0	0	506	507	514	509	31	31	
5	0	0	0	0	507	507	512	511	31	31	
6	0	0	0	0	507	509	512	507	31	32	
7	0	0	0	0	504	506	511	509	31	32	
8	0	0	0	0	503	508	508	512	31	31	
9	0	0	0	0	501	507	510	511	31	31	
10	0	0	0	0	501	510	511	513	31	31	
11	0	0	0	0	502	512	511	513	31	31	
12	0	0	0	0	502	515	512	512	31	31	
13	0	0	0	0	500	518	512	507	31	32	
14	0	0	0	0	504	524	511	506	31	31	
15	0	0	0	0	502	527	510	508	31	31	
0	0	0	0	0	502	520	511	509	31	32	
1	0	0	0	0	499	513	513	509	31	31	
2	0	0	0	0	499	505	515	508	31	31	
3	0	0	0	0	500	504	514	511	31	32	
4	0	0	0	0	503	504	512	510	31	31	
5	0	0	0	0	508	508	510	513	31	31	
6	0	0	0	0	509	519	511	511	31	31	
7	0	0	0	0	507	523	511	513	31	31	
8	0	0	0	0	505	521	512	513	31	32	
9	0	0	0	0	506	517	510	513	31	31	
10	0	0	0	0	505	524	512	513	31	31	
11	0	0	0	0	504	527	511	507	31	31	
12	0	0	0	0	504	522	514	509	31	31	
13	0	0	0	0	502	511	511	510	31	31	
14	0	0	0	0	505	493	511	510	31	31	
15	0	0	0	0	506	478	512	509	31	31	
0	0	0	0	0	503	475	511	508	31	32	
1	0	0	0	0	502	487	511	512	31	32	
2	0	0	0	0	504	495	513	511	31	32	
3	0	0	0	0	506	504	510	510	31	31	
4	0	0	0	0	504	512	513	511	31	31	
5	0	0	0	0	502	520	511	511	31	31	
6	0	0	0	0	501	526	512	511	31	31	
7	0	0	0	0	501	527	511	511	31	31	
8	0	0	0	0	504	527	511	505	31	31	
9	0	0	0	0	505	521	513	511	31	32	
10	0	0	0	0	506	523	510	511	31	32	
11	0	0	0	0	501	519	510	512	31	32	
12	0	0	0	0	504	517	512	509	31	32	
13	0	0	0	0	504	515	512	509	31	31	
14	0	0	0	0	504	519	512	509	31	31	
15	0	0	0	0	500	519	509	508	31	31	
0	0	0	0	0	500	518	513	507	31	31	
1	0	0	0	0	499	519	511	507	31	31	
2	0	0	0	0	499	513	514	512	31	31	
3	0	0	0	0	502	508	512	510	31	31	
4	0	0	0	0	502	505	510	508	31	31	
5	0	0	0	0	503	502	512	511	31	31	
6	0	0	0	0	503	502	511	513	31	31	
7	0	0	0	0	504	505	511	513	31	31	
8	0	0	0	0	503	508	512	511	31	32	
9	0	0	0	0	504	509	510	506	31	32	
10	0	0	0	0	507	511	511	507	31	32	
11	0	0	0	0	505	517	509	509	31	32	
12	0	0	0	0	503	517	513	509	31	32	
13	0	0	0	0	504	523	514	512	31	32	
14	0	0	0	0	504	528	513	509	31	31	
15	0	0	0	0	499	521	513	512	31	31	
0	0	0	0	0	496	516	510	510	31	31	
1	0	0	0	0	497	511	512	509	31	31	
2	0	0	0	0	504	504	511	509	31	32	
3	0	0	0	0	505	511	511	510	31	31	
4	0	0	0	0	504	506	513	512	31	31	
5	0	0	0	0	504	509	512	510	31	31	
6	0	0	0	0	506	508	510	511	31	31	
7	0	0	0	0	511	507	511	512	31	31	
8	0	0	0	0	513	507	512	512	31	32	
9	0	0	0	0	508	510	510	514	31	32	
10	0	0	0	0	503	506	511	513	31	32	
11	0	0	0	0	503	504	512	511	31	32	
12	0	0	0	0	505	506	511	511	31	32	
13	0	0	0	0	505	512	513	504	31	31	
14	0	0	0	0	505	513	512	506	31	31	
15	0	0	0	0	504	512	511	505	31	31	
0	0	0	0	0	506	515	512	507	31	31	
1	0	0	0	0	506	517	512	509	31	31	
2	0	0	0	0	503	515	512	510	31	31	
3	0	0	0	0	498	516	513	511	31	31	
4	0	0	0	0	497	516	511	511	31	32	
5	0	0	0	0	499	521	509	511	31	32	
6	0	0	0	0	500	527	511	510	31	31	
7	0	0	0	0	501	521	511	511	31	31	
8	0	0	0	0	504	515	510	512	31	31	
9	0	0	0	0	502	512	512	511	31	31	
10	0	0	0	0	501	510	511	512	31	31	
11	0	0	0	0	502	509	512	511	31	31	
12	0	0	0	0	497	507	515	511	31	32	
13	0	0	0	0	499	507	514	507	31	31	
14	0	0	0	0	500	508	511	510	31	31	
15	0	0	0	0	500	515	513	507	31	31	
0	0	0	0	0	504	518	512	508	31	31	
1	0	0	0	0	502	521	511	511	31	31	
2	0	0	0	0	503	524	512	512	31	31	
3	0	0	0	0	505	524	512	507	31	32	
4	0	0	0	0	504	514	511	508	31	31	
5	0	0	0	0	503	510	513	510	31	32	
6	0	0	0	0	502	499	512	510	31	32	
7	0	0	0	0	504	496	514	511	31	31	
8	0	0	0	0	503	494	512	511	31	31	
9	0	0	0	0	504	501	510	510	31	31	
10	0	0	0	0	507	509	511	506	31	31	
11	0	0	0	0	508	513	510	509	31	32	
12	0	0	0	0	504	513	512	511	31	32	
13	0	0	0	0	504	512	509	512	31	31	
14	0	0	0	0	502	510	510	512	31	31	
15	0	0	0	0	504	505	512	512	31	31	
0	0	0	0	0	500	508	513	514	31	31	
1	0	0	0	0	498	515	512	513	31	31	
2	0	0	0	0	499	521	511	512	31	32	
3	0	0	0	0	502	520	514	510	31	31	
4	0	0	0	0	502	519	511	511	31	31	
5	0	0	0	0	507	516	511	507	31	31	
6	0	0	0	0	508	511	510	508	31	31	
7	0	0	0	0	504	509	511	508	31	31	
8	0	0	0	0	506	512	513	508	31	32	
9	0	0	0	0	505	511	512	510	31	32	
10	0	0	0	0	507	516	511	511	31	32	
11	0	0	0	0	504	519	514	513	31	32	
12	0	0	0	0	503	520	513	512	31	32	
13	0	0	0	0	504	518	513	510	31	31	
14	0	0	0	0	501	514	511	510	31	31	
15	0	0	0	0	501	510	512	510	31	31	
0	0	0	0	0	504	515	511	508	31	31	
1	0	0	0	0	504	516	510	508	31	31	
2	0	0	0	0	507	518	513	511	31	31	
3	0	0	0	0	506	519	512	511	31	31	
4	0	0	0	0	499	515	513	510	31	31	
5	0	0	0	0	498	508	512	505	31	31	
6	0	0	0	0	496	501	511	508	31	31	
7	0	0	0	0	493	496	511	513	31	31	
8	0	0	0	0	496	499	511	511	31	32	
9	0	0	0	0	501	500	511	514	31	31	
10	0	0	0	0	500	508	512	514	31	31	
11	0	0	0	0	502	514	511	513	31	31	
12	0	0	0	0	508	514	511	511	31	31	
13	0	0	0	0	514	515	513	511	31	31	
14	0	0	0	0	513	512	512	511	31	31	
15	0	0	0	0	513	513	511	510	31	31	
0	0	0	0	0	510	514	513	508	31	32	
1	0	0	0	0	508	518	514	508	31	31	
2	0	0	0	0	507	515	512	512	31	31	
3	0	0	0	0	503	517	513	514	31	32	
4	0	0	0	0	501	518	510	512	31	32	
5	0	0	0	0	501	519	511	510	31	32	
6	0	0	0	0	501	521	509	504	31	31	
7	0	0	0	0	504	519	510	508	31	31	
8	0	0	0	0	505	515	512	507	31	31	
9	0	0	0	0	504	510	512	508	31	31	
10	0	0	0	0	504	507	513	511	31	31	
11	0	0	0	0	506	505	512	510	31	31	
12	0	0	0	0	504	504	512	512	31	32	
13	0	0	0	0	503	507	512	512	31	31	
14	0	0	0	0	503	515	512	508	31	32	
15	0	0	0	0	507	520	509	508	31	32	
0	0	0	0	0	508	516	510	512	31	32	
1	0	0	0	0	507	513	511	511	31	32	
2	0	0	0	0	510	519	513	510	31	32	
3	0	0	0	0	511	520	512	513	31	32	
4	0	0	0	0	509	518	510	508	31	31	
5	0	0	0	0	508	510	511	509	31	31	
6	0	0	0	0	507	500	512	509	31	31	
7	0	0	0	0	506	495	512	512	31	31	
8	0	0	0	0	503	493	512	513	31	31	
9	0	0	0	0	506	501	512	512	31	31	
10	0	0	0	0	504	508	511	506	31	31	
11	0	0	0	0	500	513	514	507	31	31	
12	0	0	0	0	501	517	512	510	31	31	
13	0	0	0	0	503	519	512	510	31	32	
14	0	0	0	0	503	515	512	510	31	32	
15	0	0	0	0	504	512	515	510	31	32	
0	0	0	0	0	502	512	513	512	31	32	
1	0	0	0	0	502	516	512	511	31	31	
2	0	0	0	0	504	525	512	509	31	31	
3	0	0	0	0	507	527	511	511	31	31	
4	0	0	0	0	512	529	512	509	31	31	
5	0	0	0	0	507	520	510	508	31	31	
6	0	0	0	0	509	519	512	508	31	31	
7	0	0	0	0	504	520	510	510	31	31	
8	0	0	0	0	500	515	511	510	31	32	
9	0	0	0	0	498	507	511	512	31	32	
10	0	0	0	0	499	489	512	512	31	32	
11	0	0	0	0	504	478	510	511	31	32	
12	0	0	0	0	507	489	512	511	31	32	
13	0	0	0	0	502	500	512	512	31	31	
14	0	0	0	0	498	509	512	512	31	31	
15	0	0	0	0	496	513	511	512	31	31	
0	0	0	0	0	503	513	512	513	31	31	
1	0	0	0	0	505	512	512	512	31	31	
2	0	0	0	0	506	511	513	508	31	32	
3	0	0	0	0	507	516	511	506	31	31	
4	0	0	0	0	507	519	512	508	31	31	
5	0	0	0	0	510	521	513	511	31	31	
6	0	0	0	0	507	523	511	514	31	31	
7	0	0	0	0	508	520	510	513	31	31	
8	0	0	0	0	507	521	512	506	31	31	
9	0	0	0	0	507	515	510	505	31	31	
10	0	0	0	0	508	512	511	510	31	31	
11	0	0	0	0	504	514	511	509	31	31	
12	0	0	0	0	502	516	512	507	31	31	
13	0	0	0	0	499	518	512	507	31	31	
14	0	0	0	0	499	517	513	505	31	31	
15	0	0	0	0	501	513	512	510	31	31	
0	0	0	0	0	500	512	513	511	31	31	
1	0	0	0	0	497	508	513	509	31	31	
2	0	0	0	0	500	508	512	509	31	31	
3	0	0	0	0	501	509	510	512	31	32	
4	0	0	0	0	504	509	510	513	31	32	
5	0	0	0	0	502	510	511	515	31	32	
6	0	0	0	0	499	511	512	512	31	31	
7	0	0	0	0	497	515	511	507	31	31	
8	0	0	0	0	498	518	513	511	31	31	
9	0	0	0	0	499	518	511	512	31	31	
10	0	0	0	0	499	516	510	512	31	31	
11	0	0	0	0	498	524	510	511	31	31	
12	0	0	0	0	500	517	511	508	31	31	
13	0	0	0	0	500	518	510	512	31	31	
14	0	0	0	0	503	510	511	507	31	31	
15	0	0	0	0	507	502	512	509	31	31	
0	0	0	0	0	508	491	512	512	31	31	
1	0	0	0	0	510	494	514	506	31	31	
2	0	0	0	0	511	500	510	508	31	31	
3	0	0	0	0	508	509	511	508	31	31	
4	0	0	0	0	506	514	512	510	31	32	
5	0	0	0	0	505	514	512	511	31	32	
6	0	0	0	0	503	515	511	515	31	32	
7	0	0	0	0	503	513	509	515	31	32	
8	0	0	0	0	499	514	512	514	31	32	
9	0	0	0	0	500	515	511	508	31	31	
10	0	0	0	0	503	517	513	507	31	32	
11	0	0	0	0	503	512	513	509	31	32	
12	0	0	0	0	502	517	510	509	31	32	
13	0	0	0	0	503	518	511	511	31	32	
14	0	0	0	0	504	516	512	510	31	32	
15	0	0	0	0	504	511	513	508	31	31	
0	0	0	0	0	505	509	513	510	31	31	
1	0	0	0	0	504	509	511	511	31	31	
2	0	0	0	0	505	518	510	511	31	31	
3	0	0	0	0	503	522	512	512	31	31	
4	0	0	0	0	502	517	511	513	31	31	
5	0	0	0	0	502	512	512	514	31	31	
6	0	0	0	0	504	507	510	509	31	31	
7	0	0	0	0	506	505	512	509	31	31	
8	0	0	0	0	503	508	513	509	31	32	
9	0	0	0	0	504	509	514	507	31	31	
10	0	0	0	0	504	513	513	510	31	31	
11	0	0	0	0	505	512	512	510	31	31	
12	0	0	0	0	498	518	510	511	31	31	
13	0	0	0	0	497	525	512	510	31	32	
14	0	0	0	0	498	530	513	509	31	32	
15	0	0	0	0	501	523	512	511	31	31	
0	0	0	0	0	504	515	510	510	31	31	
1	0	0	0	0	504	505	513	510	31	31	
2	0	0	0	0	508	497	512	510	31	31	
3	0	0	0	0	511	497	510	511	31	32	
4	0	0	0	0	509	494	511	511	31	31	
5	0	0	0	0	508	495	511	508	31	31	
6	0	0	0	0	508	503	511	511	31	31	
7	0	0	0	0	507	507	511	512	31	32	
8	0	0	0	0	506	511	512	515	31	32	
9	0	0	0	0	505	517	511	513	31	31	
10	0	0	0	0	505	519	514	508	31	31	
11	0	0	0	0	507	520	513	506	31	32	
12	0	0	0	0	504	518	513	510	31	31	
13	0	0	0	0	505	515	511	511	31	31	
14	0	0	0	0	504	516	510	512	31	31	
15	0	0	0	0	503	524	511	511	31	31	
0	0	0	0	0	502	536	513	508	31	31	
1	0	0	0	0	503	540	513	508	31	31	
2	0	0	0	0	499	523	511	512	31	31	
3	0	0	0	0	502	508	513	508	31	31	
4	0	0	0	0	502	493	510	507	31	31	
5	0	0	0	0	506	488	511	510	31	31	
6	0	0	0	0	507	490	512	511	31	31	
7	0	0	0	0	503	494	512	510	31	32	
8	0	0	0	0	502	501	510	513	31	32	
9	0	0	0	0	501	508	511	511	31	32	
10	0	0	0	0	502	515	511	511	31	32	
11	0	0	0	0	504	518	515	510	31	32	
12	0	0	0	0	503	515	513	511	31	32	
13	0	0	0	0	502	520	512	510	31	32	
14	0	0	0	0	503	521	511	510	31	32	
15	0	0	0	0	504	521	511	510	31	31	
0	0	0	0	0	504	524	511	510	31	31	
1	0	0	0	0	505	534	511	508	31	31	
2	0	0	0	0	504	531	509	508	31	31	
3	0	0	0	0	508	518	510	508	31	31	
4	0	0	0	0	509	504	511	511	31	31	
5	0	0	0	0	509	491	512	511	31	31	
6	0	0	0	0	504	487	511	512	31	31	
7	0	0	0	0	502	492	512	511	31	31	
8	0	0	0	0	501	499	512	510	31	31	
9	0	0	0	0	500	509	511	512	31	31	
10	0	0	0	0	504	514	512	510	31	31	
11	0	0	0	0	503	518	512	508	31	31	
12	0	0	0	0	502	520	512	510	31	31	
13	0	0	0	0	501	517	511	512	31	31	
14	0	0	0	0	502	518	510	508	31	31	
15	0	0	0	0	507	522	511	505	31	31	
0	0	0	0	0	505	521	512	507	31	32	
1	0	0	0	0	504	519	512	509	31	31	
2	0	0	0	0	504	516	513	510	31	31	
3	0	0	0	0	502	518	514	509	31	31	
4	0	0	0	0	502	529	510	511	31	32	
5	0	0	0	0	506	526	510	509	31	31	
6	0	0	0	0	511	516	512	512	31	31	
7	0	0	0	0	513	500	511	511	31	31	
8	0	0	0	0	511	483	511	510	31	31	
9	0	0	0	0	508	482	512	510	31	31	
10	0	0	0	0	504	490	512	510	31	32	
11	0	0	0	0	500	496	510	511	31	32	
12	0	0	0	0	495	504	513	510	31	32	
13	0	0	0	0	493	524	512	507	31	31	
14	0	0	0	0	493	526	512	511	31	31	
15	0	0	0	0	492	523	513	516	31	31	
0	0	0	0	0	494	531	512	510	31	31	
1	0	0	0	0	502	529	511	506	31	31	
2	0	0	0	0	508	525	513	504	31	31	
3	0	0	0	0	514	512	512	509	31	31	
4	0	0	0	0	516	496	512	510	31	31	
5	0	0	0	0	518	493	511	511	31	31	
6	0	0	0	0	510	496	511	513	31	31	
7	0	0	0	0	504	505	510	513	31	32	
8	0	0	0	0	504	514	510	515	31	31	
9	0	0	0	0	503	516	510	512	31	32	
10	0	0	0	0	506	515	512	511	31	31	
11	0	0	0	0	508	513	512	511	31	31	
12	0	0	0	0	508	516	515	510	31	31	
13	0	0	0	0	507	518	513	509	31	32	
14	0	0	0	0	505	521	513	509	31	32	
15	0	0	0	0	502	523	510	510	31	32	
0	0	0	0	0	503	519	511	512	31	31	
1	0	0	0	0	506	512	510	507	31	31	
2	0	0	0	0	505	510	512	506	31	31	
3	0	0	0	0	502	509	512	506	31	31	
4	0	0	0	0	501	510	511	509	31	31	
5	0	0	0	0	500	511	511	509	31	31	
6	0	0	0	0	501	511	510	510	31	31	
7	0	0	0	0	501	511	513	508	31	31	
8	0	0	0	0	502	516	513	508	31	32	
9	0	0	0	0	503	524	508	511	31	32	
10	0	0	0	0	505	526	510	512	31	31	
11	0	0	0	0	508	520	510	511	31	31	
12	0	0	0	0	508	512	510	512	31	31	
13	0	0	0	0	507	511	511	512	31	31	
14	0	0	0	0	506	519	510	511	31	31	
15	0	0	0	0	504	514	510	512	31	31	
0	0	0	0	0	504	508	511	511	31	31	
1	0	0	0	0	506	499	513	511	31	31	
2	0	0	0	0	505	494	511	504	31	32	
3	0	0	0	0	506	492	512	508	31	32	
4	0	0	0	0	505	496	511	510	31	31	
5	0	0	0	0	504	501	510	508	31	31	
6	0	0	0	0	504	513	516	506	31	32	
7	0	0	0	0	501	519	512	509	31	31	
8	0	0	0	0	499	524	512	511	31	32	
9	0	0	0	0	500	527	513	511	31	32	
10	0	0	0	0	498	524	514	513	31	31	
11	0	0	0	0	502	519	515	509	31	31	
12	0	0	0	0	501	517	511	512	31	31	
13	0	0	0	0	500	514	513	513	31	32	
14	0	0	0	0	504	510	512	514	31	32	
15	0	0	0	0	507	505	510	507	31	31	
0	0	0	0	0	510	504	510	508	31	31	
1	0	0	0	0	506	506	512	507	31	31	
2	0	0	0	0	504	509	510	505	31	31	
3	0	0	0	0	506	514	510	508	31	31	
4	0	0	0	0	504	523	509	512	31	31	
5	0	0	0	0	505	526	512	512	31	31	
6	0	0	0	0	503	518	511	510	31	32	
7	0	0	0	0	498	512	512	512	31	32	
8	0	0	0	0	498	508	513	515	31	32	
9	0	0	0	0	498	506	511	513	31	32	
10	0	0	0	0	501	503	512	514	31	32	
11	0	0	0	0	502	504	512	512	31	31	
12	0	0	0	0	503	508	511	510	31	32	
13	0	0	0	0	503	516	512	508	31	31	
14	0	0	0	0	504	520	512	508	31	31	
15	0	0	0	0	507	520	511	510	31	31	
0	0	0	0	0	506	515	512	512	31	31	
1	0	0	0	0	505	511	511	510	31	31	
2	0	0	0	0	505	508	513	504	31	31	
3	0	0	0	0	504	504	513	506	31	31	
4	0	0	0	0	505	499	511	510	31	32	
5	0	0	0	0	505	507	512	511	31	31	
6	0	0	0	0	505	518	513	511	31	31	
7	0	0	0	0	505	524	513	510	31	31	
8	0	0	0	0	504	522	512	508	31	31	
9	0	0	0	0	504	518	512	510	31	31	
10	0	0	0	0	502	509	512	510	31	32	
11	0	0	0	0	503	515	510	512	31	31	
12	0	0	0	0	504	505	510	514	31	32	
13	0	0	0	0	503	510	511	512	31	32	
14	0	0	0	0	499	513	509	511	31	32	
15	0	0	0	0	503	507	511	510	31	32	
0	0	0	0	0	506	502	512	509	31	31	
1	0	0	0	0	507	503	515	508	31	31	
2	0	0	0	0	505	502	511	508	31	31	
3	0	0	0	0	506	505	515	509	31	31	
4	0	0	0	0	505	509	512	510	31	31	
5	0	0	0	0	504	516	510	511	31	31	
6	0	0	0	0	503	516	509	510	31	32	
7	0	0	0	0	504	518	510	511	31	32	
8	0	0	0	0	503	521	511	511	31	31	
9	0	0	0	0	499	523	513	511	31	31	
10	0	0	0	0	496	524	513	508	31	31	
11	0	0	0	0	500	524	511	509	31	31	
12	0	0	0	0	502	522	514	511	31	31	
13	0	0	0	0	504	515	510	510	31	31	
14	0	0	0	0	501	509	509	510	31	32	
15	0	0	0	0	504	505	512	511	31	32	
0	0	0	0	0	507	508	512	513	31	31	
1	0	0	0	0	506	513	513	512	31	32	
2	0	0	0	0	503	513	511	511	31	31	
3	0	0	0	0	500	510	512	511	31	31	
4	0	0	0	0	500	512	513	512	31	31	
5	0	0	0	0	504	509	513	511	31	32	
6	0	0	0	0	504	515	512	507	31	31	
7	0	0	0	0	507	521	513	506	31	31	
8	0	0	0	0	504	508	513	505	31	31	
9	0	0	0	0	505	508	513	507	31	31	
10	0	0	0	0	504	522	511	509	31	31	
11	0	0	0	0	503	522	508	514	31	31	
12	0	0	0	0	504	522	509	515	31	32	
13	0	0	0	0	502	505	510	514	31	31	
14	0	0	0	0	499	492	514	505	31	32	
15	0	0	0	0	504	480	513	508	31	32	
0	0	0	0	0	504	484	513	513	31	31	
1	0	0	0	0	507	496	513	512	31	31	
2	0	0	0	0	506	507	508	511	31	31	
3	0	0	0	0	503	514	511	511	31	32	
4	0	0	0	0	501	519	509	505	31	32	
5	0	0	0	0	501	523	510	507	31	31	
6	0	0	0	0	502	524	511	510	31	32	
7	0	0	0	0	504	520	512	513	31	31	
8	0	0	0	0	503	519	512	511	31	31	
9	0	0	0	0	504	522	512	510	31	31	
10	0	0	0	0	505	525	511	509	31	31	
11	0	0	0	0	506	529	512	505	31	31	
12	0	0	0	0	503	530	513	510	31	31	
13	0	0	0	0	500	522	512	508	31	31	
14	0	0	0	0	497	511	510	510	31	32	
15	0	0	0	0	499	503	511	508	31	32	
0	0	0	0	0	501	501	512	509	31	32	
1	0	0	0	0	504	500	511	511	31	31	
2	0	0	0	0	503	503	512	510	31	31	
3	0	0	0	0	504	502	512	511	31	31	
4	0	0	0	0	504	510	510	509	31	31	
5	0	0	0	0	505	511	509	511	31	31	
6	0	0	0	0	505	509	511	509	31	31	
7	0	0	0	0	504	519	511	509	31	31	
8	0	0	0	0	501	527	512	512	31	31	
9	0	0	0	0	504	522	511	511	31	31	
10	0	0	0	0	502	516	511	510	31	32	
11	0	0	0	0	504	508	512	510	31	32	
12	0	0	0	0	503	502	513	509	31	32	
13	0	0	0	0	500	501	513	512	31	31	
14	0	0	0	0	503	504	512	513	31	31	
15	0	0	0	0	507	504	511	512	31	31	
0	0	0	0	0	508	513	512	509	31	31	
1	0	0	0	0	507	526	513	508	31	32	
2	0	0	0	0	501	528	511	507	31	32	
3	0	0	0	0	500	526	511	512	31	32	
4	0	0	0	0	499	527	511	512	31	32	
5	0	0	0	0	495	529	509	513	31	32	
6	0	0	0	0	499	527	512	514	31	31	
7	0	0	0	0	502	509	511	513	31	31	
8	0	0	0	0	508	491	513	507	31	31	
9	0	0	0	0	508	487	514	504	31	31	
10	0	0	0	0	507	486	512	508	31	31	
11	0	0	0	0	504	487	512	510	31	31	
12	0	0	0	0	507	495	511	510	31	31	
13	0	0	0	0	507	508	512	511	31	31	
14	0	0	0	0	508	514	511	510	31	31	
15	0	0	0	0	505	515	512	511	31	31	
0	0	0	0	0	504	521	511	508	31	31	
1	0	0	0	0	502	524	510	509	31	31	
2	0	0	0	0	500	534	514	510	31	31	
3	0	0	0	0	500	541	514	510	31	32	
4	0	0	0	0	502	531	510	511	31	32	
5	0	0	0	0	505	521	510	511	31	31	
6	0	0	0	0	504	519	511	510	31	31	
7	0	0	0	0	504	512	512	512	31	31	
8	0	0	0	0	503	499	511	510	31	31	
9	0	0	0	0	505	499	510	508	31	31	
10	0	0	0	0	504	505	513	507	31	31	
11	0	0	0	0	504	513	513	509	31	31	
12	0	0	0	0	504	511	513	510	31	31	
13	0	0	0	0	505	499	513	513	31	32	
14	0	0	0	0	502	492	513	512	31	32	
15	0	0	0	0	502	494	512	513	31	32	
0	0	0	0	0	506	502	510	512	31	32	
1	0	0	0	0	506	516	509	512	31	31	
2	0	0	0	0	506	523	508	511	31	32	
3	0	0	0	0	505	518	508	508	31	32	
4	0	0	0	0	506	513	511	509	31	32	
5	0	0	0	0	505	516	510	511	31	31	
6	0	0	0	0	504	527	511	509	31	31	
7	0	0	0	0	502	525	512	510	31	31	
8	0	0	0	0	502	519	512	508	31	31	
9	0	0	0	0	496	511	511	509	31	31	
10	0	0	0	0	497	519	511	510	31	31	
11	0	0	0	0	500	510	513	513	31	32	
12	0	0	0	0	502	507	510	513	31	32	
13	0	0	0	0	504	518	511	514	31	32	
14	0	0	0	0	507	520	512	508	31	31	
15	0	0	0	0	510	510	509	508	31	31	
0	0	0	0	0	508	504	512	509	31	31	
1	0	0	0	0	505	501	514	511	31	31	
2	0	0	0	0	505	498	513	509	31	32	
3	0	0	0	0	504	491	513	507	31	32	
4	0	0	0	0	505	499	511	509	31	32	
5	0	0	0	0	505	518	512	511	31	32	
6	0	0	0	0	508	526	514	512	31	32	
7	0	0	0	0	509	530	512	510	31	31	
8	0	0	0	0	511	522	512	510	31	31	
9	0	0	0	0	507	508	513	511	31	31	
10	0	0	0	0	507	507	509	509	31	31	
11	0	0	0	0	505	508	512	508	31	31	
12	0	0	0	0	502	519	512	509	31	31	
13	0	0	0	0	500	528	511	509	31	32	
14	0	0	0	0	500	540	511	510	31	31	
15	0	0	0	0	500	531	513	511	31	31	
0	0	0	0	0	503	511	510	513	31	32	
1	0	0	0	0	500	500	512	511	31	32	
2	0	0	0	0	499	495	513	508	31	31	
3	0	0	0	0	504	486	511	510	31	32	
4	0	0	0	0	502	487	513	511	31	31	
5	0	0	0	0	504	488	512	509	31	31	
6	0	0	0	0	502	494	508	509	31	31	
7	0	0	0	0	505	504	512	508	31	31	
8	0	0	0	0	504	515	510	507	31	31	
9	0	0	0	0	504	519	510	506	31	31	
10	0	0	0	0	501	522	511	513	31	32	
11	0	0	0	0	502	526	511	515	31	32	
12	0	0	0	0	503	523	512	515	31	31	
13	0	0	0	0	504	512	512	510	31	32	
14	0	0	0	0	506	518	510	508	31	32	
15	0	0	0	0	506	525	511	512	31	32	
0	0	0	0	0	506	527	511	510	31	32	
1	0	0	0	0	507	520	511	510	31	32	
2	0	0	0	0	507	514	513	511	31	31	
3	0	0	0	0	507	513	513	506	31	31	
4	0	0	0	0	505	517	513	508	31	32	
5	0	0	0	0	504	516	510	508	31	32	
6	0	0	0	0	504	513	511	510	31	32	
7	0	0	0	0	504	507	511	507	31	31	
8	0	0	0	0	501	508	511	509	31	31	
9	0	0	0	0	499	518	512	511	31	31	
10	0	0	0	0	498	524	514	509	31	31	
11	0	0	0	0	500	508	513	510	31	31	
12	0	0	0	0	505	494	512	510	31	32	
13	0	0	0	0	506	495	509	514	31	31	
14	0	0	0	0	504	506	510	516	31	31	
15	0	0	0	0	504	510	511	514	31	31	
0	0	0	0	0	505	512	512	503	31	32	
1	0	0	0	0	503	515	512	505	31	32	
2	0	0	0	0	504	513	512	512	31	32	
3	0	0	0	0	505	514	511	510	31	32	
4	0	0	0	0	503	505	510	510	31	31	
5	0	0	0	0	499	511	512	509	31	31	
6	0	0	0	0	504	515	512	510	31	31	
7	0	0	0	0	506	510	512	510	31	31	
8	0	0	0	0	504	502	513	510	31	31	
9	0	0	0	0	504	506	511	511	31	32	
10	0	0	0	0	503	512	512	511	31	32	
11	0	0	0	0	507	535	512	512	31	32	
12	0	0	0	0	508	537	511	510	31	32	
13	0	0	0	0	510	527	511	509	31	31	
14	0	0	0	0	504	519	511	511	31	31	
15	0	0	0	0	499	512	513	511	31	31	
0	0	0	0	0	501	525	514	507	31	31	
1	0	0	0	0	504	543	514	505	31	31	
2	0	0	0	0	504	516	514	511	31	31	
3	0	0	0	0	498	468	511	512	31	32	
4	0	0	0	0	495	455	512	514	31	32	
5	0	0	0	0	499	495	512	513	31	32	
6	0	0	0	0	506	556	512	510	31	31	
7	0	0	0	0	509	561	511	510	31	31	
8	0	0	0	0	511	534	510	508	31	31	
9	0	0	0	0	505	518	508	513	31	31	
10	0	0	0	0	510	495	509	511	31	31	
11	0	0	0	0	514	456	511	508	31	31	
12	0	0	0	0	509	457	512	510	31	31	
13	0	0	0	0	502	490	511	513	31	31	
14	0	0	0	0	502	516	513	513	31	31	
15	0	0	0	0	505	519	513	510	31	31	
0	0	0	0	0	504	516	511	506	31	32	
1	0	0	0	0	501	519	512	512	31	32	
2	0	0	0	0	499	507	512	509	31	31	
3	0	0	0	0	502	527	512	508	31	32	
4	0	0	0	0	503	540	512	511	31	31	
5	0	0	0	0	508	515	511	509	31	32	
6	0	0	0	0	505	502	514	511	31	32	
7	0	0	0	0	505	508	512	511	31	31	
8	0	0	0	0	504	512	515	511	31	31	
9	0	0	0	0	504	519	513	509	31	32	
10	0	0	0	0	503	524	512	511	31	31	
11	0	0	0	0	505	526	512	508	31	31	
12	0	0	0	0	503	524	509	508	31	31	
13	0	0	0	0	504	519	509	509	31	31	
14	0	0	0	0	501	496	511	510	31	31	
15	0	0	0	0	500	492	511	508	31	31	
0	0	0	0	0	502	521	510	511	31	31	
1	0	0	0	0	503	559	511	509	31	31	
2	0	0	0	0	504	558	511	513	31	31	
3	0	0	0	0	503	535	514	508	31	31	
4	0	0	0	0	504	491	514	507	31	31	
5	0	0	0	0	504	455	513	515	31	31	
6	0	0	0	0	508	453	510	515	31	31	
7	0	0	0	0	504	497	511	512	31	31	
8	0	0	0	0	500	528	511	512	31	32	
9	0	0	0	0	502	536	510	512	31	31	
10	0	0	0	0	503	537	511	512	31	31	
11	0	0	0	0	504	516	513	507	31	31	
12	0	0	0	0	501	495	514	507	31	31	
13	0	0	0	0	500	484	510	509	31	31	
14	0	0	0	0	500	489	509	512	31	32	
15	0	0	0	0	499	494	511	512	31	32	
0	0	0	0	0	505	502	511	513	31	32	
1	0	0	0	0	508	521	513	510	31	31	
2	0	0	0	0	507	530	513	508	31	32	
3	0	0	0	0	506	518	511	510	31	32	
4	0	0	0	0	505	518	513	509	31	31	
5	0	0	0	0	510	523	514	508	31	31	
6	0	0	0	0	513	542	514	508	31	31	
7	0	0	0	0	510	536	515	510	31	31	
8	0	0	0	0	512	511	512	512	31	32	
9	0	0	0	0	510	500	513	512	31	32	
10	0	0	0	0	505	496	512	512	31	31	
11	0	0	0	0	504	482	512	511	31	31	
12	0	0	0	0	504	475	511	512	31	31	
13	0	0	0	0	505	495	511	508	31	31	
14	0	0	0	0	504	528	512	507	31	31	
15	0	0	0	0	501	531	510	511	31	32	
0	0	0	0	0	494	524	510	512	31	32	
1	0	0	0	0	485	521	510	516	31	32	
2	0	0	0	0	491	505	511	515	31	32	
3	0	0	0	0	503	508	510	511	31	32	
4	0	0	0	0	509	498	511	512	31	32	
5	0	0	0	0	509	524	509	506	31	31	
6	0	0	0	0	508	560	511	504	31	31	
7	0	0	0	0	508	543	512	505	31	31	
8	0	0	0	0	507	520	512	507	31	32	
9	0	0	0	0	508	504	510	513	31	31	
10	0	0	0	0	508	497	511	511	31	31	
11	0	0	0	0	512	490	510	511	31	31	
12	0	0	0	0	508	503	511	514	31	31	
13	0	0	0	0	503	525	512	513	31	31	
14	0	0	0	0	499	524	512	512	31	31	
15	0	0	0	0	494	533	509	511	31	32	
0	0	0	0	0	495	497	511	513	31	31	
1	0	0	0	0	495	468	509	507	31	31	
2	0	0	0	0	501	508	512	509	31	31	
3	0	0	0	0	508	523	514	505	31	31	
4	0	0	0	0	510	510	511	510	31	31	
5	0	0	0	0	511	502	512	510	31	32	
6	0	0	0	0	507	512	515	508	31	31	
7	0	0	0	0	504	516	513	511	31	32	
8	0	0	0	0	504	521	512	513	31	32	
9	0	0	0	0	502	532	513	508	31	31	
10	0	0	0	0	504	531	512	504	31	31	
11	0	0	0	0	506	509	513	506	31	32	
12	0	0	0	0	505	510	512	512	31	32	
13	0	0	0	0	504	545	512	508	31	31	
14	0	0	0	0	504	563	513	508	31	31	
15	0	0	0	0	505	529	512	511	31	31	
0	0	0	0	0	503	455	510	512	31	31	
1	0	0	0	0	507	432	511	513	31	31	
2	0	0	0	0	501	447	511	512	31	31	
3	0	0	0	0	505	482	514	511	31	31	
4	0	0	0	0	507	520	511	509	31	31	
5	0	0	0	0	503	536	511	510	31	31	
6	0	0	0	0	504	522	511	511	31	31	
7	0	0	0	0	503	509	512	511	31	31	
8	0	0	0	0	493	521	513	515	31	31	
9	0	0	0	0	490	536	509	513	31	32	
10	0	0	0	0	505	519	510	515	31	32	
11	0	0	0	0	508	515	510	511	31	32	
12	0	0	0	0	508	485	510	508	31	31	
13	0	0	0	0	510	509	510	510	31	31	
14	0	0	0	0	509	529	509	508	31	31	
15	0	0	0	0	507	536	512	508	31	31	
0	0	0	0	0	504	510	512	508	31	31	
1	0	0	0	0	499	502	511	507	31	31	
2	0	0	0	0	503	511	512	511	31	31	
3	0	0	0	0	504	521	514	511	31	31	
4	0	0	0	0	505	518	514	510	31	31	
5	0	0	0	0	504	534	512	509	31	31	
6	0	0	0	0	503	531	512	508	31	31	
7	0	0	0	0	500	510	512	508	31	31	
8	0	0	0	0	499	478	512	511	31	31	
9	0	0	0	0	499	497	514	509	31	31	
10	0	0	0	0	500	525	512	509	31	31	
11	0	0	0	0	499	539	512	510	31	31	
12	0	0	0	0	505	558	511	511	31	32	
13	0	0	0	0	507	543	511	511	31	32	
14	0	0	0	0	510	513	508	509	31	31	
15	0	0	0	0	510	479	511	512	31	31	
0	0	0	0	0	510	468	513	510	31	31	
1	0	0	0	0	510	478	513	508	31	32	
2	0	0	0	0	505	499	513	511	31	32	
3	0	0	0	0	507	510	510	511	31	31	
4	0	0	0	0	504	503	513	508	31	31	
5	0	0	0	0	502	528	512	503	31	31	
6	0	0	0	0	504	559	515	505	31	31	
7	0	0	0	0	502	547	513	511	31	31	
8	0	0	0	0	496	553	509	511	31	32	
9	0	0	0	0	499	543	509	515	31	32	
10	0	0	0	0	503	492	510	515	31	31	
11	0	0	0	0	505	461	510	511	31	32	
12	0	0	0	0	503	467	513	510	31	32	
13	0	0	0	0	502	486	512	513	31	32	
14	0	0	0	0	501	504	512	512	31	32	
15	0	0	0	0	492	514	509	513	31	32	
0	0	0	0	0	494	527	510	510	31	32	
1	0	0	0	0	497	500	509	512	31	32	
2	0	0	0	0	504	500	512	512	31	32	
3	0	0	0	0	504	518	512	507	31	31	
4	0	0	0	0	512	551	511	507	31	31	
5	0	0	0	0	515	547	514	508	31	31	
6	0	0	0	0	511	543	512	504	31	31	
7	0	0	0	0	507	502	512	507	31	31	
8	0	0	0	0	508	464	513	512	31	32	
9	0	0	0	0	504	435	512	514	31	32	
10	0	0	0	0	507	471	512	511	31	31	
11	0	0	0	0	504	543	515	510	31	31	
12	0	0	0	0	507	543	511	512	31	31	
13	0	0	0	0	512	509	514	513	31	31	
14	0	0	0	0	511	475	513	512	31	31	
15	0	0	0	0	509	473	509	511	31	31	
0	0	0	0	0	505	497	512	509	31	32	
1	0	0	0	0	497	542	513	509	31	32	
2	0	0	0	0	487	568	514	508	31	32	
3	0	0	0	0	493	560	513	508	31	31	
4	0	0	0	0	496	552	510	509	31	31	
5	0	0	0	0	500	559	508	508	31	31	
6	0	0	0	0	509	519	511	510	31	31	
7	0	0	0	0	512	492	511	510	31	31	
8	0	0	0	0	511	467	514	508	31	31	
9	0	0	0	0	509	461	514	510	31	31	
10	0	0	0	0	504	486	513	512	31	31	
11	0	0	0	0	503	507	510	508	31	31	
12	0	0	0	0	500	524	508	511	31	31	
13	0	0	0	0	497	534	509	509	31	31	
14	0	0	0	0	499	528	511	509	31	31	
15	0	0	0	0	502	528	513	509	31	31	
0	0	0	0	0	501	514	513	512	31	32	
1	0	0	0	0	499	513	511	511	31	32	
2	0	0	0	0	499	518	511	517	31	32	
3	0	0	0	0	504	544	508	515	31	32	
4	0	0	0	0	505	535	509	509	31	32	
5	0	0	0	0	509	511	511	506	31	31	
6	0	0	0	0	507	510	510	511	31	31	
7	0	0	0	0	504	500	512	511	31	31	
8	0	0	0	0	503	502	511	507	31	31	
9	0	0	0	0	503	504	514	508	31	31	
10	0	0	0	0	504	478	513	508	31	32	
11	0	0	0	0	505	481	513	515	31	31	
12	0	0	0	0	507	506	512	511	31	31	
13	0	0	0	0	507	494	514	511	31	31	
14	0	0	0	0	508	495	512	510	31	31	
15	0	0	0	0	508	500	511	512	31	31	
0	0	0	0	0	507	513	513	515	31	31	
1	0	0	0	0	506	529	512	515	31	32	
2	0	0	0	0	505	539	512	505	31	32	
3	0	0	0	0	502	519	509	500	31	31	
4	0	0	0	0	497	540	510	508	31	32	
5	0	0	0	0	498	569	512	510	31	31	
6	0	0	0	0	503	540	511	508	31	31	
7	0	0	0	0	503	515	512	510	31	31	
8	0	0	0	0	504	472	511	511	31	31	
9	0	0	0	0	504	480	513	511	31	31	
10	0	0	0	0	499	525	514	509	31	31	
11	0	0	0	0	502	514	513	512	31	32	
12	0	0	0	0	500	476	513	512	31	32	
13	0	0	0	0	505	476	511	512	31	31	
14	0	0	0	0	504	486	511	513	31	31	
15	0	0	0	0	503	535	511	508	31	31	
0	0	0	0	0	501	568	513	510	31	31	
1	0	0	0	0	505	534	512	510	31	31	
2	0	0	0	0	508	490	514	508	31	31	
3	0	0	0	0	510	456	511	508	31	31	
4	0	0	0	0	508	499	511	508	31	31	
5	0	0	0	0	507	566	509	508	31	31	
6	0	0	0	0	508	543	510	511	31	32	
7	0	0	0	0	506	503	510	511	31	32	
8	0	0	0	0	503	474	509	513	31	32	
9	0	0	0	0	505	477	511	513	31	32	
10	0	0	0	0	504	495	510	512	31	31	
11	0	0	0	0	499	502	512	512	31	31	
12	0	0	0	0	496	514	511	508	31	31	
13	0	0	0	0	494	536	512	508	31	31	
14	0	0	0	0	495	539	512	511	31	31	
15	0	0	0	0	498	546	512	512	31	31	
0	0	0	0	0	503	540	512	509	31	31	
1	0	0	0	0	504	520	513	507	31	32	
2	0	0	0	0	507	503	512	515	31	32	
3	0	0	0	0	507	495	510	513	31	32	
4	0	0	0	0	505	494	508	506	31	31	
5	0	0	0	0	504	503	509	511	31	31	
6	0	0	0	0	503	496	511	508	31	31	
7	0	0	0	0	503	509	513	508	31	31	
8	0	0	0	0	504	518	511	509	31	31	
9	0	0	0	0	505	524	511	511	31	31	
10	0	0	0	0	504	534	513	511	31	31	
11	0	0	0	0	503	553	515	509	31	32	
12	0	0	0	0	502	573	513	508	31	31	
13	0	0	0	0	504	558	513	507	31	31	
14	0	0	0	0	502	541	513	508	31	31	
15	0	0	0	0	505	500	511	513	31	32	
0	0	0	0	0	510	415	511	511	31	31	
1	0	0	0	0	507	413	512	509	31	31	
2	0	0	0	0	501	469	514	506	31	31	
3	0	0	0	0	495	598	512	504	31	31	
4	0	0	0	0	500	575	512	504	31	31	
5	0	0	0	0	507	496	510	509	31	31	
6	0	0	0	0	508	490	511	513	31	32	
7	0	0	0	0	505	479	511	516	31	32	
8	0	0	0	0	502	480	512	520	31	32	
9	0	0	0	0	501	507	511	510	31	32	
10	0	0	0	0	503	486	510	512	31	32	
11	0	0	0	0	506	468	510	513	31	32	
12	0	0	0	0	509	477	511	512	31	31	
13	0	0	0	0	510	493	510	511	31	31	
14	0	0	0	0	507	517	511	509	31	31	
15	0	0	0	0	503	551	514	507	31	31	
0	0	0	0	0	498	590	511	507	31	31	
1	0	0	0	0	495	601	512	507	31	31	
2	0	0	0	0	496	560	515	507	31	31	
3	0	0	0	0	502	507	512	509	31	31	
4	0	0	0	0	504	455	512	512	31	32	
5	0	0	0	0	506	407	511	512	31	32	
6	0	0	0	0	511	431	512	509	31	31	
7	0	0	0	0	507	500	515	509	31	31	
8	0	0	0	0	504	532	508	511	31	32	
9	0	0	0	0	502	535	508	507	31	31	
10	0	0	0	0	503	532	510	506	31	32	
11	0	0	0	0	505	529	511	508	31	31	
12	0	0	0	0	504	531	512	508	31	31	
13	0	0	0	0	502	543	512	511	31	31	
14	0	0	0	0	502	548	511	515	31	31	
15	0	0	0	0	503	531	512	516	31	31	
0	0	0	0	0	501	519	511	515	31	32	
1	0	0	0	0	497	538	511	513	31	31	
2	0	0	0	0	500	543	512	508	31	31	
3	0	0	0	0	506	524	513	507	31	32	
4	0	0	0	0	508	500	513	508	31	31	
5	0	0	0	0	506	482	511	509	31	31	
6	0	0	0	0	507	467	512	508	31	31	
7	0	0	0	0	507	475	511	511	31	31	
8	0	0	0	0	502	502	510	511	31	32	
9	0	0	0	0	500	542	509	515	31	31	
10	0	0	0	0	496	546	511	512	31	31	
11	0	0	0	0	499	524	512	512	31	31	
12	0	0	0	0	506	505	513	498	31	31	
13	0	0	0	0	510	503	511	505	31	31	
14	0	0	0	0	508	514	511	511	31	31	
15	0	0	0	0	502	502	512	512	31	31	
0	0	0	0	0	503	501	511	511	31	31	
1	0	0	0	0	501	489	512	512	31	31	
2	0	0	0	0	496	486	512	513	31	32	
3	0	0	0	0	495	490	513	512	31	31	
4	0	0	0	0	497	537	515	512	31	32	
5	0	0	0	0	504	562	512	509	31	32	
6	0	0	0	0	508	542	509	505	31	32	
7	0	0	0	0	506	539	509	508	31	32	
8	0	0	0	0	509	535	510	508	31	31	
9	0	0	0	0	509	485	511	510	31	31	
10	0	0	0	0	511	447	511	511	31	32	
11	0	0	0	0	505	464	511	514	31	32	
12	0	0	0	0	504	494	512	512	31	32	
13	0	0	0	0	504	535	512	510	31	31	
14	0	0	0	0	503	524	510	511	31	31	
15	0	0	0	0	497	547	510	511	31	31	
0	0	0	0	0	503	550	511	510	31	31	
1	0	0	0	0	508	527	512	511	31	31	
2	0	0	0	0	512	492	513	503	31	31	
3	0	0	0	0	511	487	511	510	31	31	
4	0	0	0	0	508	494	514	510	31	31	
5	0	0	0	0	509	468	515	509	31	32	
6	0	0	0	0	505	455	511	509	31	32	
7	0	0	0	0	499	517	511	507	31	31	
8	0	0	0	0	494	567	512	507	31	32	
9	0	0	0	0	496	544	513	509	31	31	
10	0	0	0	0	502	519	512	511	31	31	
11	0	0	0	0	508	515	513	512	31	32	
12	0	0	0	0	505	513	510	510	31	32	
13	0	0	0	0	504	575	509	510	31	32	
14	0	0	0	0	497	573	512	510	31	31	
15	0	0	0	0	499	543	510	513	31	31	
0	0	0	0	0	504	467	511	513	31	31	
1	0	0	0	0	504	421	510	514	31	31	
2	0	0	0	0	505	432	513	512	31	31	
3	0	0	0	0	503	472	513	511	31	31	
4	0	0	0	0	504	497	513	511	31	31	
5	0	0	0	0	506	512	512	508	31	31	
6	0	0	0	0	503	539	514	509	31	31	
7	0	0	0	0	499	581	513	505	31	32	
8	0	0	0	0	500	580	511	507	31	31	
9	0	0	0	0	504	536	511	507	31	32	
10	0	0	0	0	507	494	511	510	31	32	
11	0	0	0	0	506	487	511	510	31	32	
12	0	0	0	0	504	506	511	511	31	31	
13	0	0	0	0	502	519	511	515	31	32	
14	0	0	0	0	504	503	512	512	31	32	
15	0	0	0	0	507	487	512	511	31	31	
0	0	0	0	0	504	480	512	511	31	31	
1	0	0	0	0	505	483	511	511	31	32	
2	0	0	0	0	504	510	512	509	31	31	
3	0	0	0	0	505	536	511	508	31	31	
4	0	0	0	0	504	542	512	508	31	31	
5	0	0	0	0	503	529	511	511	31	31	
6	0	0	0	0	502	515	509	513	31	31	
7	0	0	0	0	503	515	511	510	31	31	
8	0	0	0	0	504	538	512	508	31	31	
9	0	0	0	0	506	549	512	507	31	31	
10	0	0	0	0	503	507	513	510	31	31	
11	0	0	0	0	499	499	514	507	31	32	
12	0	0	0	0	499	526	512	506	31	31	
13	0	0	0	0	501	552	509	504	31	31	
14	0	0	0	0	501	545	510	507	31	32	
15	0	0	0	0	505	532	509	514	31	32	
0	0	0	0	0	509	484	511	516	31	32	
1	0	0	0	0	508	443	512	513	31	31	
2	0	0	0	0	504	492	510	515	31	31	
3	0	0	0	0	505	527	511	514	31	31	
4	0	0	0	0	511	495	512	509	31	31	
5	0	0	0	0	508	463	515	508	31	31	
6	0	0	0	0	505	495	514	510	31	31	
7	0	0	0	0	500	534	514	503	31	32	
8	0	0	0	0	499	533	513	510	31	32	
9	0	0	0	0	500	480	510	515	31	32	
10	0	0	0	0	502	452	508	517	31	32	
11	0	0	0	0	502	467	512	511	31	32	
12	0	0	0	0	503	536	512	510	31	31	
13	0	0	0	0	497	594	511	508	31	31	
14	0	0	0	0	500	560	512	511	31	32	
15	0	0	0	0	504	487	512	510	31	31	
0	0	0	0	0	509	465	511	508	31	31	
1	0	0	0	0	507	493	513	507	31	31	
2	0	0	0	0	504	591	512	504	31	31	
3	0	0	0	0	502	580	513	508	31	32	
4	0	0	0	0	505	504	510	510	31	32	
5	0	0	0	0	507	449	511	512	31	32	
6	0	0	0	0	509	441	507	513	31	32	
7	0	0	0	0	509	455	509	511	31	31	
8	0	0	0	0	507	492	511	512	31	32	
9	0	0	0	0	501	523	511	508	31	31	
10	0	0	0	0	503	543	512	511	31	31	
11	0	0	0	0	502	545	512	505	31	31	
12	0	0	0	0	502	541	510	507	31	31	
13	0	0	0	0	503	531	513	512	31	31	
14	0	0	0	0	505	527	512	511	31	31	
15	0	0	0	0	508	518	511	512	31	31	
0	0	0	0	0	508	512	512	512	31	31	
1	0	0	0	0	503	529	513	510	31	32	
2	0	0	0	0	499	583	513	508	31	32	
3	0	0	0	0	497	569	508	509	31	31	
4	0	0	0	0	494	509	511	510	31	31	
5	0	0	0	0	499	450	516	513	31	31	
6	0	0	0	0	501	447	511	512	31	31	
7	0	0	0	0	503	475	511	511	31	31	
8	0	0	0	0	504	501	510	515	31	31	
9	0	0	0	0	502	504	515	505	31	32	
10	0	0	0	0	505	539	511	507	31	32	
11	0	0	0	0	505	538	513	508	31	32	
12	0	0	0	0	510	497	515	510	31	31	
13	0	0	0	0	504	509	513	510	31	31	
14	0	0	0	0	499	566	512	509	31	32	
15	0	0	0	0	498	560	509	509	31	32	
0	0	0	0	0	497	536	506	510	31	32	
1	0	0	0	0	503	518	510	511	31	32	
2	0	0	0	0	503	496	510	512	31	31	
3	0	0	0	0	506	479	514	509	31	31	
4	0	0	0	0	512	454	513	505	31	31	
5	0	0	0	0	511	430	509	511	31	31	
6	0	0	0	0	507	490	510	517	31	32	
7	0	0	0	0	505	526	510	516	31	32	
8	0	0	0	0	504	493	513	515	31	32	
9	0	0	0	0	501	483	512	515	31	32	
10	0	0	0	0	499	521	513	510	31	31	
11	0	0	0	0	498	571	513	506	31	31	
12	0	0	0	0	504	579	512	505	31	31	
13	0	0	0	0	511	509	513	507	31	31	
14	0	0	0	0	514	451	513	511	31	31	
15	0	0	0	0	516	444	513	513	31	31	
0	0	0	0	0	508	482	510	514	31	31	
1	0	0	0	0	500	514	511	514	31	31	
2	0	0	0	0	499	529	512	507	31	31	
3	0	0	0	0	502	537	511	508	31	31	
4	0	0	0	0	507	546	510	508	31	31	
5	0	0	0	0	504	543	513	510	31	31	
6	0	0	0	0	502	539	510	510	31	31	
7	0	0	0	0	501	549	512	510	31	32	
8	0	0	0	0	496	533	511	512	31	32	
9	0	0	0	0	497	508	511	509	31	32	
10	0	0	0	0	496	492	512	504	31	31	
11	0	0	0	0	499	492	515	503	31	31	
12	0	0	0	0	504	502	516	511	31	31	
13	0	0	0	0	506	552	515	508	31	32	
14	0	0	0	0	502	572	511	508	31	31	
15	0	0	0	0	504	558	508	512	31	31	
0	0	0	0	0	508	508	511	507	31	31	
1	0	0	0	0	512	465	511	502	31	31	
2	0	0	0	0	510	450	512	510	31	31	
3	0	0	0	0	502	461	511	514	31	32	
4	0	0	0	0	496	489	509	515	31	32	
5	0	0	0	0	494	526	512	518	31	32	
6	0	0	0	0	496	547	510	515	31	32	
7	0	0	0	0	500	505	511	515	31	31	
8	0	0	0	0	504	492	510	513	31	31	
9	0	0	0	0	502	509	509	513	31	31	
10	0	0	0	0	504	509	513	508	31	31	
11	0	0	0	0	506	514	511	505	31	31	
12	0	0	0	0	509	515	513	507	31	31	
13	0	0	0	0	510	512	512	503	31	31	
14	0	0	0	0	509	497	511	508	31	31	
15	0	0	0	0	504	492	513	513	31	32	
0	0	0	0	0	500	504	514	511	31	32	
1	0	0	0	0	494	515	509	512	31	31	
2	0	0	0	0	508	512	512	512	31	31	
3	0	0	0	0	511	519	511	511	31	31	
4	0	0	0	0	506	523	511	508	31	31	
5	0	0	0	0	507	527	514	507	31	31	
6	0	0	0	0	504	525	512	508	31	31	
7	0	0	0	0	503	529	512	510	31	31	
8	0	0	0	0	501	519	510	512	31	32	
9	0	0	0	0	502	517	512	514	31	31	
10	0	0	0	0	507	514	509	513	31	31	
11	0	0	0	0	508	514	510	510	31	32	
12	0	0	0	0	504	523	511	510	31	31	
13	0	0	0	0	502	532	511	510	31	31	
14	0	0	0	0	504	524	515	513	31	32	
15	0	0	0	0	508	508	515	513	31	32	
0	0	0	0	0	505	503	513	505	31	32	
1	0	0	0	0	504	496	512	507	31	31	
2	0	0	0	0	500	500	514	510	31	31	
3	0	0	0	0	498	515	514	512	31	31	
4	0	0	0	0	498	519	511	516	31	31	
5	0	0	0	0	499	519	507	511	31	31	
6	0	0	0	0	503	518	508	501	31	31	
7	0	0	0	0	507	497	512	502	31	31	
8	0	0	0	0	505	478	511	509	31	31	
9	0	0	0	0	507	482	513	514	31	31	
10	0	0	0	0	506	488	507	513	31	31	
11	0	0	0	0	504	494	508	511	31	32	
12	0	0	0	0	500	524	512	508	31	32	
13	0	0	0	0	502	527	512	511	31	31	
14	0	0	0	0	503	516	511	510	31	31	
15	0	0	0	0	503	513	514	513	31	31	
0	0	0	0	0	499	523	512	517	31	31	
1	0	0	0	0	502	521	510	517	31	31	
2	0	0	0	0	505	519	512	515	31	31	
3	0	0	0	0	506	519	513	500	31	31	
4	0	0	0	0	504	520	512	502	31	31	
5	0	0	0	0	503	529	514	508	31	31	
6	0	0	0	0	504	533	511	509	31	31	
7	0	0	0	0	507	537	513	510	31	32	
8	0	0	0	0	505	501	514	510	31	31	
9	0	0	0	0	506	494	514	508	31	31	
10	0	0	0	0	504	542	513	510	31	31	
11	0	0	0	0	505	562	512	510	31	32	
12	0	0	0	0	504	499	508	510	31	31	
13	0	0	0	0	503	467	511	510	31	31	
14	0	0	0	0	499	502	511	509	31	32	
15	0	0	0	0	509	512	512	509	31	31	
0	0	0	0	0	512	517	513	510	31	31	
1	0	0	0	0	510	507	514	512	31	32	
2	0	0	0	0	503	479	511	513	31	32	
3	0	0	0	0	499	468	511	515	31	31	
4	0	0	0	0	493	510	510	511	31	31	
5	0	0	0	0	493	515	509	511	31	31	
6	0	0	0	0	496	495	510	508	31	32	
7	0	0	0	0	501	467	512	514	31	32	
8	0	0	0	0	503	471	511	512	31	32	
9	0	0	0	0	506	492	511	511	31	32	
10	0	0	0	0	503	516	511	515	31	31	
11	0	0	0	0	505	533	512	511	31	31	
12	0	0	0	0	507	520	513	507	31	31	
13	0	0	0	0	507	525	514	508	31	31	
14	0	0	0	0	506	557	512	510	31	31	
15	0	0	0	0	507	548	510	512	31	31	
0	0	0	0	0	508	525	511	505	31	31	
1	0	0	0	0	512	529	515	503	31	31	
2	0	0	0	0	516	540	515	508	31	31	
3	0	0	0	0	515	533	515	510	31	31	
4	0	0	0	0	506	524	513	507	31	32	
5	0	0	0	0	495	525	510	505	31	31	
6	0	0	0	0	487	527	508	509	31	32	
7	0	0	0	0	487	519	511	510	31	31	
8	0	0	0	0	494	505	512	511	31	31	
9	0	0	0	0	493	511	510	512	31	32	
10	0	0	0	0	499	499	510	515	31	32	
11	0	0	0	0	504	480	509	513	31	32	
12	0	0	0	0	501	505	512	512	31	32	
13	0	0	0	0	502	503	511	510	31	31	
14	0	0	0	0	508	463	513	511	31	31	
15	0	0	0	0	512	449	513	511	31	31	
0	0	0	0	0	512	490	511	510	31	31	
1	0	0	0	0	508	521	511	510	31	32	
2	0	0	0	0	502	544	508	513	31	32	
3	0	0	0	0	500	590	511	510	31	32	
4	0	0	0	0	500	603	509	508	31	32	
5	0	0	0	0	503	519	512	508	31	31	
6	0	0	0	0	505	475	510	510	31	31	
7	0	0	0	0	504	468	512	511	31	31	
8	0	0	0	0	510	477	513	510	31	31	
9	0	0	0	0	505	497	514	512	31	31	
10	0	0	0	0	507	482	513	511	31	31	
11	0	0	0	0	505	491	512	511	31	32	
12	0	0	0	0	507	511	511	508	31	31	
13	0	0	0	0	508	540	513	502	31	31	
14	0	0	0	0	505	523	513	508	31	31	
15	0	0	0	0	507	513	512	507	31	31	
0	0	0	0	0	504	520	514	508	31	31	
1	0	0	0	0	499	521	511	515	31	31	
2	0	0	0	0	499	519	512	515	31	31	
3	0	0	0	0	495	525	509	516	31	32	
4	0	0	0	0	497	525	510	513	31	32	
5	0	0	0	0	502	521	512	515	31	31	
6	0	0	0	0	498	506	511	504	31	32	
7	0	0	0	0	493	508	511	507	31	31	
8	0	0	0	0	493	573	511	511	31	31	
9	0	0	0	0	505	624	511	510	31	32	
10	0	0	0	0	512	572	511	507	31	31	
11	0	0	0	0	510	498	511	512	31	31	
12	0	0	0	0	514	420	510	512	31	31	
13	0	0	0	0	521	378	510	506	31	31	
14	0	0	0	0	511	404	511	512	31	32	
15	0	0	0	0	503	443	512	513	31	32	
0	0	0	0	0	502	483	512	511	31	31	
1	0	0	0	0	505	523	512	505	31	32	
2	0	0	0	0	504	545	513	507	31	32	
3	0	0	0	0	501	545	508	511	31	32	
4	0	0	0	0	495	547	511	507	31	31	
5	0	0	0	0	496	552	510	509	31	31	
6	0	0	0	0	499	539	513	507	31	32	
7	0	0	0	0	502	532	512	510	31	32	
8	0	0	0	0	504	512	515	512	31	31	
9	0	0	0	0	506	515	514	511	31	31	
10	0	0	0	0	503	530	517	512	31	31	
11	0	0	0	0	502	535	511	514	31	31	
12	0	0	0	0	501	519	504	514	31	31	
13	0	0	0	0	499	515	510	515	31	31	
14	0	0	0	0	500	507	512	511	31	31	
15	0	0	0	0	504	496	510	512	31	31	
0	0	0	0	0	502	498	511	511	31	31	
1	0	0	0	0	504	509	512	509	31	31	
2	0	0	0	0	505	513	511	507	31	31	
3	0	0	0	0	508	515	512	507	31	31	
4	0	0	0	0	510	513	513	508	31	31	
5	0	0	0	0	509	516	513	508	31	31	
6	0	0	0	0	504	530	514	509	31	32	
7	0	0	0	0	504	535	512	510	31	32	
8	0	0	0	0	503	534	512	512	31	32	
9	0	0	0	0	499	539	513	509	31	31	
10	0	0	0	0	499	510	512	502	31	31	
11	0	0	0	0	502	474	512	508	31	31	
12	0	0	0	0	503	465	511	512	31	32	
13	0	0	0	0	504	470	511	512	31	32	
14	0	0	0	0	503	474	510	511	31	32	
15	0	0	0	0	504	490	511	511	31	32	
0	0	0	0	0	503	504	512	513	31	32	
1	0	0	0	0	499	513	512	512	31	31	
2	0	0	0	0	499	524	510	515	31	31	
3	0	0	0	0	505	528	512	508	31	32	
4	0	0	0	0	509	529	510	508	31	31	
5	0	0	0	0	511	539	509	508	31	31	
6	0	0	0	0	509	539	511	505	31	31	
7	0	0	0	0	505	515	512	510	31	31	
8	0	0	0	0	501	513	512	515	31	31	
9	0	0	0	0	499	499	512	508	31	32	
10	0	0	0	0	502	497	510	510	31	31	
11	0	0	0	0	502	502	511	508	31	31	
12	0	0	0	0	502	511	511	510	31	31	
13	0	0	0	0	503	524	510	510	31	31	
14	0	0	0	0	505	520	511	509	31	32	
15	0	0	0	0	507	518	512	511	31	32	
0	0	0	0	0	511	523	510	511	31	31	
1	0	0	0	0	508	513	515	510	31	32	
2	0	0	0	0	505	509	513	511	31	32	
3	0	0	0	0	503	505	512	511	31	31	
4	0	0	0	0	502	513	512	508	31	31	
5	0	0	0	0	498	534	509	510	31	31	
6	0	0	0	0	497	540	511	508	31	31	
7	0	0	0	0	497	509	512	510	31	31	
8	0	0	0	0	499	498	513	508	31	32	
9	0	0	0	0	507	488	511	508	31	32	
10	0	0	0	0	509	483	513	511	31	32	
11	0	0	0	0	512	485	511	511	31	31	
12	0	0	0	0	508	495	511	510	31	31	
13	0	0	0	0	508	507	511	511	31	31	
14	0	0	0	0	507	523	513	510	31	32	
15	0	0	0	0	505	525	512	509	31	31	
0	0	0	0	0	504	521	510	509	31	32	
1	0	0	0	0	504	513	510	511	31	32	
2	0	0	0	0	502	517	514	513	31	32	
3	0	0	0	0	501	537	511	510	31	31	
4	0	0	0	0	498	539	512	507	31	31	
5	0	0	0	0	502	526	514	510	31	31	
6	0	0	0	0	502	510	512	510	31	31	
7	0	0	0	0	505	494	510	508	31	31	
8	0	0	0	0	506	491	511	511	31	31	
9	0	0	0	0	504	497	512	511	31	32	
10	0	0	0	0	504	502	511	511	31	31	
11	0	0	0	0	502	512	512	510	31	31	
12	0	0	0	0	502	518	510	509	31	31	
13	0	0	0	0	503	513	511	510	31	31	
14	0	0	0	0	503	518	511	510	31	31	
15	0	0	0	0	499	531	512	510	31	31	
0	0	0	0	0	503	536	509	511	31	31	
1	0	0	0	0	504	527	512	511	31	31	
2	0	0	0	0	504	512	513	515	31	31	
3	0	0	0	0	504	496	512	507	31	31	
4	0	0	0	0	505	492	513	508	31	31	
5	0	0	0	0	503	497	512	510	31	31	
6	0	0	0	0	500	515	512	508	31	32	
7	0	0	0	0	501	524	510	511	31	31	
8	0	0	0	0	504	525	511	508	31	31	
9	0	0	0	0	508	523	511	509	31	31	
10	0	0	0	0	507	509	512	512	31	31	
11	0	0	0	0	505	504	513	509	31	31	
12	0	0	0	0	501	524	513	510	31	32	
13	0	0	0	0	499	527	513	507	31	32	
14	0	0	0	0	502	501	511	509	31	32	
15	0	0	0	0	499	484	511	510	31	32	
0	0	0	0	0	496	472	512	515	31	32	
1	0	0	0	0	502	476	512	514	31	31	
2	0	0	0	0	507	495	509	512	31	31	
3	0	0	0	0	511	521	511	511	31	31	
4	0	0	0	0	515	544	507	509	31	31	
5	0	0	0	0	513	547	510	510	31	31	
6	0	0	0	0	511	529	512	510	31	31	
7	0	0	0	0	505	508	511	508	31	31	
8	0	0	0	0	502	502	511	513	31	31	
9	0	0	0	0	500	503	514	510	31	31	
10	0	0	0	0	502	515	512	510	31	31	
11	0	0	0	0	503	525	514	511	31	31	
12	0	0	0	0	504	518	513	511	31	31	
13	0	0	0	0	502	516	511	511	31	32	
14	0	0	0	0	501	531	512	509	32	32	
15	0	0	0	0	503	527	513	509	32	32	
0	0	0	0	0	502	521	510	509	31	31	
1	0	0	0	0	504	507	513	510	31	31	
2	0	0	0	0	507	489	510	509	31	31	
3	0	0	0	0	505	477	510	510	31	31	
4	0	0	0	0	508	490	510	509	31	31	
5	0	0	0	0	504	508	510	510	31	32	
6	0	0	0	0	501	517	512	511	31	31	
7	0	0	0	0	502	517	510	509	31	32	
8	0	0	0	0	504	513	513	511	31	32	
9	0	0	0	0	503	511	513	510	31	31	
10	0	0	0	0	503	520	513	508	31	31	
11	0	0	0	0	505	531	511	508	31	31	
12	0	0	0	0	504	527	514	507	31	31	
13	0	0	0	0	504	519	512	509	31	32	
14	0	0	0	0	507	506	511	510	31	32	
15	0	0	0	0	509	504	511	511	32	32	
0	0	0	0	0	505	508	511	512	31	31	
1	0	0	0	0	504	518	511	512	31	31	
2	0	0	0	0	504	515	510	512	31	31	
3	0	0	0	0	505	515	511	513	31	31	
4	0	0	0	0	505	515	511	504	31	31	
5	0	0	0	0	509	515	512	507	31	32	
6	0	0	0	0	508	513	513	509	31	32	
7	0	0	0	0	507	511	511	510	31	31	
8	0	0	0	0	502	519	511	512	31	31	
9	0	0	0	0	498	540	510	514	31	31	
10	0	0	0	0	497	523	512	513	31	32	
11	0	0	0	0	498	500	512	514	31	31	
12	0	0	0	0	500	486	511	509	31	31	
13	0	0	0	0	500	498	512	509	31	31	
14	0	0	0	0	501	513	511	513	31	31	
15	0	0	0	0	499	524	511	514	31	31	
0	0	0	0	0	502	524	508	510	31	31	
1	0	0	0	0	502	505	510	508	31	31	
2	0	0	0	0	505	493	511	510	31	31	
3	0	0	0	0	503	491	514	512	31	31	
4	0	0	0	0	500	501	515	506	31	31	
5	0	0	0	0	502	509	513	506	31	31	
6	0	0	0	0	503	526	512	509	31	31	
7	0	0	0	0	507	525	510	509	31	32	
8	0	0	0	0	513	515	513	507	31	32	
9	0	0	0	0	515	499	513	510	31	32	
10	0	0	0	0	512	491	515	511	31	32	
11	0	0	0	0	507	499	513	513	31	32	
12	0	0	0	0	505	506	509	511	31	31	
13	0	0	0	0	504	511	510	512	31	31	
14	0	0	0	0	502	523	510	512	31	31	
15	0	0	0	0	497	531	507	511	31	31	
0	0	0	0	0	496	537	511	511	31	31	
1	0	0	0	0	496	548	513	508	31	31	
2	0	0	0	0	501	540	514	510	31	31	
3	0	0	0	0	507	521	514	510	31	32	
4	0	0	0	0	508	502	513	511	31	32	
5	0	0	0	0	506	492	512	510	31	32	
6	0	0	0	0	508	482	513	513	31	32	
7	0	0	0	0	510	491	515	510	31	32	
8	0	0	0	0	511	504	512	509	31	31	
9	0	0	0	0	508	516	510	510	31	31	
10	0	0	0	0	495	522	507	510	31	31	
11	0	0	0	0	496	525	508	512	31	31	
12	0	0	0	0	503	525	508	510	31	32	
13	0	0	0	0	506	522	510	509	31	31	
14	0	0	0	0	507	509	511	510	31	31	
15	0	0	0	0	503	511	510	508	31	31	
0	0	0	0	0	505	534	509	510	31	32	
1	0	0	0	0	508	517	512	513	31	32	
2	0	0	0	0	508	488	515	514	31	32	
3	0	0	0	0	511	475	513	512	31	31	
4	0	0	0	0	508	483	513	510	31	31	
5	0	0	0	0	501	496	514	510	31	31	
6	0	0	0	0	492	521	512	511	31	31	
7	0	0	0	0	490	529	512	508	31	32	
8	0	0	0	0	497	511	512	506	31	32	
9	0	0	0	0	500	505	512	505	31	31	
10	0	0	0	0	502	521	510	510	31	31	
11	0	0	0	0	492	520	509	510	31	31	
12	0	0	0	0	480	525	511	511	31	31	
13	0	0	0	0	499	524	519	508	31	32	
14	0	0	0	0	517	517	515	506	31	32	
15	0	0	0	0	526	520	514	505	31	32	
0	0	0	0	0	526	544	515	505	31	32	
1	0	0	0	0	521	536	513	513	31	32	
2	0	0	0	0	515	527	508	514	31	32	
3	0	0	0	0	509	500	508	513	31	32	
4	0	0	0	0	497	486	506	516	31	32	
5	0	0	0	0	496	482	511	512	31	32	
6	0	0	0	0	499	481	511	512	31	32	
7	0	0	0	0	500	483	514	507	31	31	
8	0	0	0	0	501	497	511	504	31	31	
9	0	0	0	0	505	504	511	507	31	31	
10	0	0	0	0	510	519	512	508	31	31	
11	0	0	0	0	510	529	512	508	31	31	
12	0	0	0	0	507	545	513	507	31	32	
13	0	0	0	0	497	572	512	512	31	32	
14	0	0	0	0	483	543	509	514	31	32	
15	0	0	0	0	491	507	511	511	31	32	
0	0	0	0	0	505	496	509	513	31	31	
1	0	0	0	0	509	471	509	512	31	31	
2	0	0	0	0	508	473	509	514	31	31	
3	0	0	0	0	508	495	511	513	31	31	
4	0	0	0	0	505	512	511	511	31	31	
5	0	0	0	0	501	520	515	509	31	32	
6	0	0	0	0	499	523	516	508	31	32	
7	0	0	0	0	499	535	516	508	32	31	
8	0	0	0	0	491	541	512	506	31	31	
9	0	0	0	0	496	515	512	508	31	31	
10	0	0	0	0	497	502	512	510	31	32	
11	0	0	0	0	494	487	513	510	31	32	
12	0	0	0	0	492	485	512	513	32	32	
13	0	0	0	0	497	500	511	513	31	32	
14	0	0	0	0	508	509	512	511	31	31	
15	0	0	0	0	511	517	513	508	31	31	
0	0	0	0	0	514	543	512	506	31	31	
1	0	0	0	0	508	560	508	510	31	32	
2	0	0	0	0	508	535	512	509	31	32	
3	0	0	0	0	513	524	512	510	31	32	
4	0	0	0	0	518	514	510	506	31	32	
5	0	0	0	0	512	511	512	507	31	31	
6	0	0	0	0	499	529	511	513	31	31	
7	0	0	0	0	493	489	514	513	31	32	
8	0	0	0	0	496	469	511	515	31	32	
9	0	0	0	0	500	471	512	513	31	32	
10	0	0	0	0	505	455	510	514	31	31	
11	0	0	0	0	507	466	510	516	31	31	
12	0	0	0	0	504	493	510	510	31	31	
13	0	0	0	0	505	519	513	510	31	31	
14	0	0	0	0	509	532	511	510	31	31	
15	0	0	0	0	513	541	512	510	31	31	
0	0	0	0	0	516	540	509	511	31	31	
1	0	0	0	0	507	559	510	511	31	31	
2	0	0	0	0	497	551	512	513	31	31	
3	0	0	0	0	503	524	520	510	31	31	
4	0	0	0	0	500	504	517	508	31	31	
5	0	0	0	0	497	493	516	509	31	31	
6	0	0	0	0	492	501	514	508	31	32	
7	0	0	0	0	482	506	503	507	31	32	
8	0	0	0	0	480	504	501	505	31	32	
9	0	0	0	0	488	504	506	508	31	32	
10	0	0	0	0	502	511	513	509	31	31	
11	0	0	0	0	511	529	515	509	31	32	
12	0	0	0	0	514	543	512	511	31	31	
13	0	0	0	0	512	542	512	511	31	31	
14	0	0	0	0	510	515	515	515	31	31	
15	0	0	0	0	511	499	518	513	31	32	
0	0	0	0	0	510	482	519	512	31	31	
1	0	0	0	0	510	470	518	510	31	31	
2	0	0	0	0	508	492	509	508	31	31	
3	0	0	0	0	500	547	509	509	31	31	
4	0	0	0	0	496	586	509	509	31	32	
5	0	0	0	0	501	547	507	511	31	32	
6	0	0	0	0	506	487	511	510	31	31	
7	0	0	0	0	511	468	513	505	31	31	
8	0	0	0	0	513	481	506	507	31	31	
9	0	0	0	0	497	510	506	511	31	32	
10	0	0	0	0	495	502	510	508	31	31	
11	0	0	0	0	498	509	511	508	31	31	
12	0	0	0	0	496	530	509	512	31	31	
13	0	0	0	0	485	509	512	516	31	31	
14	0	0	0	0	477	489	518	516	31	32	
15	0	0	0	0	488	475	518	513	31	32	
0	0	0	0	0	502	475	515	513	32	32	
1	0	0	0	0	519	498	520	509	32	32	
2	0	0	0	0	532	524	519	507	31	32	
3	0	0	0	0	534	520	515	512	31	32	
4	0	0	0	0	513	551	511	510	31	32	
5	0	0	0	0	497	557	503	510	31	32	
6	0	0	0	0	496	532	503	511	31	31	
7	0	0	0	0	504	513	507	507	31	30	
8	0	0	0	0	504	519	510	507	31	30	
9	0	0	0	0	505	533	511	507	31	31	
10	0	0	0	0	502	541	512	511	31	31	
11	0	0	0	0	507	506	518	511	31	32	
12	0	0	0	0	505	477	510	510	31	32	
13	0	0	0	0	502	494	509	510	31	32	
14	0	0	0	0	485	491	508	512	31	31	
15	0	0	0	0	478	512	508	512	31	30	
0	0	0	0	0	491	515	508	511	32	31	
1	0	0	0	0	502	526	510	511	32	32	
2	0	0	0	0	506	530	511	512	31	33	
3	0	0	0	0	512	532	512	511	31	33	
4	0	0	0	0	516	491	510	513	31	32	
5	0	0	0	0	520	475	513	510	31	32	
6	0	0	0	0	527	489	516	508	31	31	
7	0	0	0	0	518	544	515	507	31	31	
8	0	0	0	0	508	547	516	507	31	31	
9	0	0	0	0	501	520	510	512	32	31	
10	0	0	0	0	500	485	510	510	31	31	
11	0	0	0	0	509	483	513	507	31	31	
12	0	0	0	0	508	492	517	507	31	31	
13	0	0	0	0	498	501	518	507	31	32	
14	0	0	0	0	488	530	512	510	31	32	
15	0	0	0	0	489	543	512	508	31	32	
0	0	0	0	0	488	556	511	509	31	32	
1	0	0	0	0	511	524	511	510	31	32	
2	0	0	0	0	516	495	509	512	31	32	
3	0	0	0	0	508	477	510	515	31	31	
4	0	0	0	0	503	478	509	513	31	31	
5	0	0	0	0	496	509	509	514	31	31	
6	0	0	0	0	495	514	511	507	31	31	
7	0	0	0	0	495	541	511	502	31	31	
8	0	0	0	0	489	517	508	509	31	31	
9	0	0	0	0	494	501	508	509	31	31	
10	0	0	0	0	497	503	511	513	31	31	
11	0	0	0	0	505	506	511	511	31	31	
12	0	0	0	0	519	514	507	515	31	31	
13	0	0	0	0	521	512	508	512	31	31	
14	0	0	0	0	508	515	510	512	31	30	
15	0	0	0	0	491	532	517	509	32	30	
0	0	0	0	0	503	544	516	505	32	30	
1	0	0	0	0	512	566	514	507	32	31	
2	0	0	0	0	496	578	515	513	31	32	
3	0	0	0	0	488	528	516	513	31	33	
4	0	0	0	0	487	494	515	515	31	33	
5	0	0	0	0	467	467	513	515	31	32	
6	0	0	0	0	460	436	510	516	31	32	
7	0	0	0	0	505	428	512	510	31	32	
8	0	0	0	0	548	438	508	509	31	31	
9	0	0	0	0	561	483	508	506	31	32	
10	0	0	0	0	550	515	511	502	31	32	
11	0	0	0	0	532	513	507	502	31	31	
12	0	0	0	0	511	531	512	506	31	31	
13	0	0	0	0	503	568	518	506	31	31	
14	0	0	0	0	510	553	520	505	31	31	
15	0	0	0	0	518	543	516	508	31	32	
0	0	0	0	0	505	548	506	512	31	32	
1	0	0	0	0	492	515	504	517	31	32	
2	0	0	0	0	488	541	508	518	31	31	
3	0	0	0	0	504	569	512	510	31	31	
4	0	0	0	0	508	538	517	510	31	32	
5	0	0	0	0	500	468	516	512	31	32	
6	0	0	0	0	489	425	515	512	31	31	
7	0	0	0	0	482	451	511	515	32	31	
8	0	0	0	0	478	487	515	512	32	31	
9	0	0	0	0	483	527	516	510	31	31	
10	0	0	0	0	496	532	511	509	31	31	
11	0	0	0	0	502	530	512	508	31	31	
12	0	0	0	0	493	556	509	510	31	31	
13	0	0	0	0	499	572	507	504	31	32	
14	0	0	0	0	507	536	511	504	31	32	
15	0	0	0	0	523	519	513	503	31	31	
0	0	0	0	0	525	541	510	511	31	31	
1	0	0	0	0	521	500	506	518	31	32	
2	0	0	0	0	514	442	505	518	31	32	
3	0	0	0	0	512	436	505	515	31	32	
4	0	0	0	0	507	451	509	512	31	31	
5	0	0	0	0	504	456	513	506	31	31	
6	0	0	0	0	496	492	517	505	31	32	
7	0	0	0	0	451	529	515	502	31	32	
8	0	0	0	0	451	559	513	504	31	31	
9	0	0	0	0	491	575	512	505	31	31	
10	0	0	0	0	515	544	515	509	31	31	
11	0	0	0	0	530	533	515	501	31	31	
12	0	0	0	0	534	587	520	504	31	31	
13	0	0	0	0	524	590	515	506	32	31	
14	0	0	0	0	537	503	510	514	31	32	
15	0	0	0	0	529	422	508	519	31	32	
0	0	0	0	0	499	418	505	516	31	31	
1	0	0	0	0	483	449	507	515	31	31	
2	0	0	0	0	481	496	503	512	31	31	
3	0	0	0	0	500	536	511	515	31	31	
4	0	0	0	0	483	508	517	515	31	31	
5	0	0	0	0	495	517	515	508	31	32	
6	0	0	0	0	502	586	510	505	31	31	
7	0	0	0	0	512	619	504	518	31	32	
8	0	0	0	0	526	567	505	522	31	32	
9	0	0	0	0	536	480	515	518	31	31	
10	0	0	0	0	523	440	518	512	31	31	
11	0	0	0	0	514	416	523	511	31	32	
12	0	0	0	0	510	414	518	510	32	32	
13	0	0	0	0	510	471	514	506	31	31	
14	0	0	0	0	492	516	509	503	31	31	
15	0	0	0	0	494	533	508	504	31	31	
0	0	0	0	0	496	537	508	501	31	31	
1	0	0	0	0	498	545	507	499	31	31	
2	0	0	0	0	502	554	508	504	31	32	
3	0	0	0	0	504	564	516	510	31	33	
4	0	0	0	0	494	551	518	512	31	32	
5	0	0	0	0	484	609	513	511	31	32	
6	0	0	0	0	477	655	511	505	31	32	
7	0	0	0	0	493	560	511	510	31	31	
8	0	0	0	0	496	430	507	514	31	32	
9	0	0	0	0	505	391	507	512	31	31	
10	0	0	0	0	505	385	511	511	31	31	
11	0	0	0	0	515	459	514	510	31	31	
12	0	0	0	0	510	499	511	513	31	30	
13	0	0	0	0	508	503	507	516	31	31	
14	0	0	0	0	504	531	509	522	31	32	
15	0	0	0	0	504	540	512	516	31	32	
0	0	0	0	0	513	539	515	513	31	32	
1	0	0	0	0	526	533	515	510	31	32	
2	0	0	0	0	519	507	507	510	31	32	
3	0	0	0	0	519	466	507	504	31	32	
4	0	0	0	0	494	477	511	505	31	31	
5	0	0	0	0	483	520	512	504	31	31	
6	0	0	0	0	488	538	508	508	31	32	
7	0	0	0	0	499	521	514	512	31	32	
8	0	0	0	0	516	504	513	511	32	32	
9	0	0	0	0	528	473	514	511	31	32	
10	0	0	0	0	519	474	513	508	31	30	
11	0	0	0	0	502	532	511	510	31	31	
12	0	0	0	0	492	542	510	512	31	31	
13	0	0	0	0	495	535	509	512	31	31	
14	0	0	0	0	498	516	513	509	31	31	
15	0	0	0	0	500	481	515	507	31	32	
0	0	0	0	0	495	489	515	507	31	32	
1	0	0	0	0	489	542	512	508	31	32	
2	0	0	0	0	487	566	512	508	31	32	
3	0	0	0	0	499	560	512	507	31	31	
4	0	0	0	0	492	560	510	509	31	31	
5	0	0	0	0	486	517	508	515	31	31	
6	0	0	0	0	483	530	508	516	31	32	
7	0	0	0	0	493	538	513	508	31	31	
8	0	0	0	0	513	492	519	508	31	31	
9	0	0	0	0	516	456	516	511	31	31	
10	0	0	0	0	524	425	514	512	31	32	
11	0	0	0	0	532	484	511	509	31	32	
12	0	0	0	0	514	525	512	508	31	31	
13	0	0	0	0	488	519	511	511	31	32	
14	0	0	0	0	475	484	507	511	32	32	
15	0	0	0	0	494	487	511	510	32	32	
0	0	0	0	0	518	530	511	510	31	31	
1	0	0	0	0	525	581	509	511	31	31	
2	0	0	0	0	511	603	513	511	31	32	
3	0	0	0	0	498	585	511	511	31	32	
4	0	0	0	0	489	519	518	506	31	32	
5	0	0	0	0	486	487	512	508	31	31	
6	0	0	0	0	484	477	508	512	31	31	
7	0	0	0	0	499	438	509	515	31	31	
8	0	0	0	0	519	422	509	516	31	31	
9	0	0	0	0	525	446	513	516	31	32	
10	0	0	0	0	526	493	513	515	31	32	
11	0	0	0	0	506	521	513	513	31	32	
12	0	0	0	0	500	533	514	512	31	32	
13	0	0	0	0	508	526	511	508	31	31	
14	0	0	0	0	510	518	511	506	31	31	
15	0	0	0	0	502	527	511	509	31	31	
0	0	0	0	0	496	510	510	507	31	31	
1	0	0	0	0	493	523	512	505	31	32	
2	0	0	0	0	501	559	510	506	31	31	
3	0	0	0	0	508	543	508	511	31	31	
4	0	0	0	0	504	536	506	510	31	32	
5	0	0	0	0	494	519	513	510	31	31	
